Data from FLMT000111__6__14-08-35-195.txt Node

Date: Thu Oct 26 14:08:35 EDT 2023
User: Student
Spectrometer: FLMT00011
Trigger mode: 0
Integration Time (sec): 1.000000E-1
Scans to average: 5
Electric dark correction enabled: true
Nonlinearity correction enabled: false
Boxcar width: 0
XAxis mode: Wavelengths
Number of Pixels in Spectrum: 3648
>>>>>Begin Spectral Data<<<<<
171.25	-205.31
171.475	-205.31
171.699	-205.31
171.923	-212.68
172.147	43.72
172.371	100.25
172.595	27.75
172.819	-32.87
173.043	-53.76
173.267	-23.04
173.491	31.44
173.715	31.85
173.939	-7.48
174.163	34.71
174.387	-16.9
174.611	-55.81
174.835	-36.15
175.059	-40.24
175.283	29.8
175.507	-32.87
175.73	55.6
175.954	12.19
176.178	-30.41
176.402	-24.68
176.626	-19.35
176.85	-76.29
177.073	-23.04
177.297	-10.34
177.521	-9.11
177.745	48.23
177.969	5.22
178.192	-5.43
178.416	-8.29
178.64	-56.63
178.863	19.15
179.087	-25.91
179.311	44.13
179.534	12.6
179.758	-71.37
179.982	63.79
180.205	24.47
180.429	10.96
180.653	-25.91
180.876	-0.1
181.1	-18.53
181.323	15.87
181.547	6.45
181.77	23.24
181.994	10.96
182.217	17.51
182.441	29.8
182.664	42.9
182.888	45.36
183.111	4.81
183.335	-48.84
183.558	17.92
183.782	54.37
184.005	51.51
184.228	-29.18
184.452	37.17
184.675	-69.73
184.899	68.3
185.122	-1.74
185.345	2.36
185.569	-68.09
185.792	19.97
186.015	-30.82
186.238	-60.31
186.462	76.49
186.685	95.33
186.908	1.13
187.131	17.92
187.355	1.95
187.578	16.69
187.801	1.13
188.024	-21.4
188.247	5.22
188.471	-11.57
188.694	62.16
188.917	13.82
189.14	-5.84
189.363	28.16
189.586	-23.45
189.809	31.44
190.032	22.83
190.255	-24.27
190.478	-33.69
190.701	-23.04
190.924	0.72
191.147	-73.83
191.37	-4.61
191.593	58.47
191.816	4.4
192.039	22.83
192.262	4.4
192.485	-7.88
192.708	27.75
192.931	13
193.154	53.55
193.377	-10.75
193.6	60.11
193.822	-28.77
194.045	-40.65
194.268	25.29
194.491	19.56
194.714	24.47
194.936	41.68
195.159	6.86
195.382	69.53
195.605	17.51
195.827	-17.31
196.05	19.97
196.273	26.11
196.495	18.74
196.718	76.9
196.941	-65.64
197.163	13.41
197.386	17.51
197.609	-31.64
197.831	8.91
198.054	125.64
198.277	12.6
198.499	-28.77
198.722	-29.59
198.944	-9.11
199.167	4.81
199.389	-11.98
199.612	-23.86
199.834	71.58
200.057	63.79
200.279	-18.53
200.502	-24.68
200.724	-7.48
200.947	-0.92
201.169	-5.84
201.391	-34.1
201.614	106.39
201.836	51.92
202.059	73.62
202.281	-20.58
202.503	-4.2
202.726	-19.76
202.948	19.97
203.17	-2.97
203.393	-5.43
203.615	-17.31
203.837	-8.29
204.059	20.79
204.282	6.45
204.504	2.76
204.726	-1.74
204.948	-33.69
205.17	22.02
205.393	3.99
205.615	-43.11
205.837	32.67
206.059	16.69
206.281	20.38
206.503	-7.07
206.725	30.21
206.947	-33.69
207.17	36.35
207.392	-32.05
207.614	-21.81
207.836	-0.1
208.058	-17.31
208.28	-16.49
208.502	-0.92
208.724	81
208.946	51.92
209.168	63.38
209.39	67.89
209.611	15.46
209.833	27.34
210.055	32.67
210.277	22.43
210.499	4.81
210.721	26.52
210.943	-9.11
211.165	58.88
211.386	64.61
211.608	-9.93
211.83	-2.97
212.052	21.61
212.274	45.36
212.495	2.36
212.717	12.19
212.939	-9.52
213.161	-12.39
213.382	4.4
213.604	-5.43
213.826	8.09
214.047	83.45
214.269	38.81
214.491	22.02
214.712	71.58
214.934	3.58
215.155	26.93
215.377	50.69
215.599	76.08
215.82	61.34
216.042	-2.97
216.263	-2.56
216.485	38.81
216.706	42.5
216.928	-7.48
217.149	-2.56
217.371	46.59
217.592	21.2
217.814	-2.15
218.035	29.8
218.257	-13.21
218.478	7.68
218.699	49.46
218.921	61.34
219.142	32.26
219.363	-7.07
219.585	-18.12
219.806	-9.52
220.027	-8.7
220.249	44.95
220.47	15.46
220.691	46.18
220.913	35.94
221.134	57.65
221.355	26.11
221.576	5.63
221.798	-66.87
222.019	8.91
222.24	20.79
222.461	35.53
222.682	53.96
222.903	22.83
223.125	21.61
223.346	36.35
223.567	-63.59
223.788	5.22
224.009	-61.13
224.23	109.26
224.451	82.23
224.672	27.34
224.893	-12.8
225.114	17.51
225.335	-59.08
225.556	14.23
225.777	57.65
225.998	55.6
226.219	-18.94
226.44	5.22
226.661	46.18
226.882	41.27
227.103	-17.31
227.324	-72.6
227.544	46.18
227.765	-13.21
227.986	-35.74
228.207	1.54
228.428	34.3
228.649	36.35
228.869	-16.9
229.09	28.16
229.311	59.29
229.532	-7.88
229.752	46.18
229.973	-1.33
230.194	66.25
230.415	10.96
230.635	51.92
230.856	20.79
231.077	44.95
231.297	37.17
231.518	23.65
231.739	-18.12
231.959	3.99
232.18	-29.18
232.4	53.55
232.621	23.24
232.841	-34.1
233.062	-65.64
233.283	-18.53
233.503	44.54
233.724	-5.02
233.944	4.81
234.165	-16.08
234.385	-32.46
234.605	3.58
234.826	-15.26
235.046	3.17
235.267	20.79
235.487	-6.25
235.708	8.09
235.928	-29.59
236.148	25.7
236.369	36.76
236.589	-31.64
236.809	17.92
237.03	11.37
237.25	-8.29
237.47	21.2
237.69	18.33
237.911	3.17
238.131	65.84
238.351	42.09
238.571	45.36
238.792	-0.92
239.012	-17.71
239.232	-47.62
239.452	-4.2
239.672	3.58
239.892	-23.04
240.112	-32.46
240.333	-48.02
240.553	15.87
240.773	53.14
240.993	-3.79
241.213	13.41
241.433	-18.94
241.653	-3.38
241.873	8.5
242.093	-52.53
242.313	-22.63
242.533	48.23
242.753	44.54
242.973	85.91
243.193	2.76
243.413	12.19
243.633	-12.39
243.853	-7.07
244.072	38.4
244.292	12.6
244.512	-28.36
244.732	56.01
244.952	-13.21
245.172	71.58
245.391	31.85
245.611	21.2
245.831	-11.98
246.051	65.84
246.271	60.11
246.49	-32.05
246.71	15.87
246.93	-2.97
247.149	-1.74
247.369	21.2
247.589	38.4
247.808	40.86
248.028	-2.56
248.248	58.06
248.467	9.32
248.687	17.51
248.906	-15.26
249.126	-1.74
249.346	7.68
249.565	-48.43
249.785	13
250.004	22.43
250.224	-5.84
250.443	-10.34
250.663	15.05
250.882	88.37
251.102	-15.67
251.321	81.82
251.541	24.88
251.76	9.32
251.979	15.87
252.199	62.98
252.418	-22.22
252.638	-23.45
252.857	33.07
253.076	29.8
253.296	-33.69
253.515	4.81
253.734	-9.11
253.953	12.19
254.173	-10.34
254.392	26.93
254.611	46.18
254.83	0.31
255.05	10.96
255.269	27.75
255.488	-23.45
255.707	37.17
255.926	10.55
256.146	17.1
256.365	57.24
256.584	-10.75
256.803	-5.02
257.022	25.29
257.241	20.38
257.46	-42.29
257.679	22.83
257.898	-1.74
258.117	4.81
258.336	66.25
258.555	-20.58
258.774	-29.18
258.993	64.61
259.212	10.96
259.431	-50.89
259.65	15.87
259.869	31.85
260.088	36.76
260.307	-11.98
260.526	-20.17
260.745	18.33
260.964	121.14
261.182	-25.5
261.401	-1.33
261.62	51.1
261.839	34.71
262.058	22.43
262.276	-48.43
262.495	40.45
262.714	18.33
262.933	-15.67
263.151	-29.18
263.37	37.99
263.589	99.84
263.807	-6.25
264.026	-5.84
264.245	-9.93
264.463	9.73
264.682	2.36
264.901	23.24
265.119	6.04
265.338	4.81
265.556	-6.66
265.775	15.46
265.994	22.02
266.212	24.88
266.431	26.11
266.649	-9.93
266.868	31.44
267.086	-35.33
267.305	-34.1
267.523	37.99
267.742	89.6
267.96	-11.16
268.178	42.09
268.397	39.63
268.615	-31.64
268.834	68.71
269.052	-36.56
269.27	-1.74
269.489	-77.52
269.707	50.69
269.925	44.13
270.143	37.17
270.362	-0.1
270.58	74.44
270.798	-16.08
271.017	71.17
271.235	44.54
271.453	-25.09
271.671	31.44
271.889	2.76
272.108	-9.93
272.326	-47.21
272.544	-7.48
272.762	51.92
272.98	-17.71
273.198	35.53
273.416	3.58
273.634	45.77
273.852	16.69
274.07	38.4
274.289	-27.95
274.507	-14.85
274.725	15.05
274.943	83.05
275.161	42.09
275.379	37.99
275.596	-3.79
275.814	-39.01
276.032	16.28
276.25	14.23
276.468	44.95
276.686	8.5
276.904	-9.93
277.122	-15.26
277.34	48.23
277.557	60.52
277.775	-30
277.993	34.3
278.211	90.42
278.429	56.42
278.646	-25.09
278.864	39.22
279.082	-19.35
279.3	37.58
279.517	30.21
279.735	8.09
279.953	17.92
280.17	-21.81
280.388	11.78
280.606	-45.57
280.823	87.55
281.041	39.63
281.259	-57.45
281.476	52.33
281.694	29.39
281.911	-5.84
282.129	7.27
282.346	-32.46
282.564	-18.53
282.781	-25.09
282.999	-18.94
283.216	32.67
283.434	18.74
283.651	34.3
283.869	-18.94
284.086	-32.87
284.304	71.58
284.521	16.28
284.738	-20.99
284.956	29.39
285.173	-65.64
285.391	8.91
285.608	36.76
285.825	8.5
286.043	38.4
286.26	20.79
286.477	5.63
286.694	26.52
286.912	42.09
287.129	27.75
287.346	-9.11
287.563	-0.92
287.78	-11.57
287.998	3.99
288.215	-29.59
288.432	-11.16
288.649	2.76
288.866	62.57
289.083	17.1
289.3	54.37
289.518	33.48
289.735	-45.16
289.952	17.51
290.169	25.29
290.386	24.06
290.603	-16.49
290.82	44.54
291.037	-23.86
291.254	2.36
291.471	47.41
291.688	-5.43
291.905	-17.71
292.122	-0.92
292.339	-39.42
292.555	1.13
292.772	-16.9
292.989	32.26
293.206	17.1
293.423	-17.31
293.64	53.96
293.857	39.22
294.073	79.77
294.29	158
294.507	3.58
294.724	70.76
294.94	-11.16
295.157	-41.88
295.374	35.94
295.591	-0.92
295.807	77.72
296.024	-16.9
296.241	29.39
296.457	33.48
296.674	8.91
296.891	-5.43
297.107	-9.11
297.324	30.62
297.54	26.93
297.757	-45.16
297.973	22.83
298.19	42.5
298.407	-35.33
298.623	-36.56
298.84	55.6
299.056	-3.79
299.272	17.1
299.489	0.31
299.705	4.81
299.922	-9.93
300.138	62.98
300.355	-52.53
300.571	59.29
300.787	-3.38
301.004	15.05
301.22	26.52
301.436	5.63
301.653	46.59
301.869	-10.34
302.085	21.2
302.302	-23.86
302.518	59.29
302.734	16.28
302.95	9.32
303.167	22.43
303.383	33.48
303.599	64.2
303.815	30.21
304.031	1.54
304.248	21.2
304.464	4.81
304.68	38.81
304.896	6.45
305.112	42.09
305.328	44.95
305.544	3.58
305.76	-43.52
305.976	-11.16
306.192	3.58
306.408	23.65
306.624	-20.17
306.84	24.88
307.056	14.23
307.272	65.84
307.488	60.11
307.704	13.82
307.92	39.63
308.136	30.62
308.352	79.77
308.568	57.24
308.784	-22.63
309	58.06
309.215	20.79
309.431	35.94
309.647	15.87
309.863	34.3
310.079	0.72
310.294	-0.92
310.51	-5.02
310.726	-31.23
310.942	92.88
311.157	28.16
311.373	83.86
311.589	-7.88
311.804	4.81
312.02	53.55
312.236	-4.61
312.451	21.2
312.667	69.12
312.883	-10.34
313.098	17.1
313.314	13
313.529	49.46
313.745	63.79
313.961	15.46
314.176	26.93
314.392	6.45
314.607	-23.04
314.823	83.86
315.038	-24.68
315.253	24.06
315.469	-20.99
315.684	36.76
315.9	-41.06
316.115	-23.86
316.331	116.63
316.546	62.16
316.761	-27.55
316.977	92.88
317.192	39.63
317.407	69.12
317.623	-70.96
317.838	27.34
318.053	-12.39
318.268	41.27
318.484	-25.91
318.699	-2.15
318.914	27.75
319.129	-0.51
319.344	44.54
319.56	58.88
319.775	56.01
319.99	78.54
320.205	-2.15
320.42	75.67
320.635	17.92
320.85	73.62
321.066	-5.02
321.281	5.22
321.496	33.48
321.711	-9.52
321.926	4.81
322.141	10.96
322.356	19.97
322.571	1.13
322.786	-31.23
323.001	0.31
323.216	5.22
323.43	33.48
323.645	40.04
323.86	64.2
324.075	-6.25
324.29	-6.25
324.505	64.2
324.72	-20.58
324.935	34.3
325.149	19.97
325.364	22.43
325.579	4.81
325.794	-30.41
326.009	22.83
326.223	24.06
326.438	-35.33
326.653	26.11
326.867	67.07
327.082	61.75
327.297	-4.2
327.511	55.6
327.726	-26.73
327.941	42.9
328.155	-33.28
328.37	-12.39
328.585	1.13
328.799	31.03
329.014	27.75
329.228	-1.33
329.443	-64
329.657	36.76
329.872	-19.35
330.086	-13.21
330.301	87.96
330.515	8.09
330.73	48.23
330.944	17.92
331.159	4.4
331.373	22.43
331.587	8.91
331.802	-1.74
332.016	53.55
332.231	-22.63
332.445	66.66
332.659	80.18
332.874	60.52
333.088	73.62
333.302	30.62
333.516	-2.56
333.731	36.35
333.945	17.51
334.159	51.92
334.373	49.46
334.588	15.87
334.802	15.05
335.016	41.68
335.23	14.64
335.444	-5.43
335.658	-19.76
335.872	46.59
336.087	46.59
336.301	78.13
336.515	-23.86
336.729	43.72
336.943	16.28
337.157	81.82
337.371	-42.7
337.585	8.09
337.799	56.42
338.013	65.43
338.227	-42.29
338.441	63.79
338.655	74.03
338.869	69.53
339.083	11.78
339.296	-9.52
339.51	3.58
339.724	39.22
339.938	31.85
340.152	7.68
340.366	28.16
340.58	82.23
340.793	-6.66
341.007	36.76
341.221	6.86
341.435	78.54
341.648	62.16
341.862	57.65
342.076	18.74
342.29	71.58
342.503	50.28
342.717	54.37
342.931	53.14
343.144	15.87
343.358	10.55
343.571	56.42
343.785	36.76
343.999	113.36
344.212	76.9
344.426	43.31
344.639	2.36
344.853	103.52
345.066	-2.56
345.28	40.86
345.493	38.4
345.707	-8.29
345.92	24.06
346.134	42.09
346.347	40.45
346.561	38.81
346.774	48.64
346.987	75.26
347.201	15.87
347.414	25.29
347.627	-7.48
347.841	68.3
348.054	47.41
348.267	117.45
348.481	44.95
348.694	24.47
348.907	18.33
349.12	40.45
349.334	44.13
349.547	-7.48
349.76	22.43
349.973	22.43
350.186	50.69
350.4	34.71
350.613	81.82
350.826	59.7
351.039	38.4
351.252	101.07
351.465	65.02
351.678	-0.1
351.891	17.51
352.104	22.02
352.317	78.13
352.53	56.01
352.743	4.4
352.956	47.41
353.169	67.07
353.382	85.5
353.595	8.5
353.808	-14.85
354.021	69.12
354.234	107.21
354.447	-21.81
354.66	104.75
354.873	39.63
355.086	120.73
355.298	46.59
355.511	21.61
355.724	59.7
355.937	145.71
356.15	90.83
356.362	84.68
356.575	72.4
356.788	76.08
357.001	45.77
357.213	61.75
357.426	86.73
357.639	82.64
357.851	89.19
358.064	80.59
358.277	71.17
358.489	54.37
358.702	50.28
358.914	49.05
359.127	26.11
359.34	56.42
359.552	49.05
359.765	45.36
359.977	127.28
360.19	89.6
360.402	84.27
360.615	75.67
360.827	16.28
361.04	129.33
361.252	56.42
361.465	68.3
361.677	60.52
361.889	90.42
362.102	45.36
362.314	101.07
362.526	97.38
362.739	231.73
362.951	835.06
363.163	1886.49
363.376	2577.47
363.588	2917.43
363.8	2858.86
364.012	2025.75
364.225	1212.7
364.437	1080.41
364.649	871.51
364.861	769.11
365.074	613.47
365.286	422.19
365.498	221.08
365.71	110.08
365.922	94.1
366.134	103.12
366.346	59.29
366.558	121.14
366.77	74.03
366.983	87.55
367.195	34.3
367.407	83.45
367.619	138.75
367.831	128.1
368.043	30.21
368.255	119.91
368.467	110.9
368.678	93.28
368.89	-16.08
369.102	115.81
369.314	141.21
369.526	85.09
369.738	42.9
369.95	38.4
370.162	113.36
370.373	89.19
370.585	64.61
370.797	83.05
371.009	58.47
371.221	41.27
371.432	61.34
371.644	81.82
371.856	110.9
372.068	109.67
372.279	85.91
372.491	90.83
372.703	56.83
372.914	66.66
373.126	45.36
373.338	15.87
373.549	81.41
373.761	77.31
373.972	44.13
374.184	97.38
374.395	99.43
374.607	100.66
374.819	34.3
375.03	70.35
375.242	105.98
375.453	82.23
375.664	83.45
375.876	99.84
376.087	84.27
376.299	140.8
376.51	67.48
376.722	66.66
376.933	111.72
377.144	156.36
377.356	72.81
377.567	112.13
377.778	141.62
377.99	111.72
378.201	194.45
378.412	166.6
378.624	81
378.835	105.57
379.046	105.98
379.257	119.09
379.468	141.21
379.68	36.76
379.891	71.99
380.102	126.05
380.313	64.2
380.524	126.87
380.735	65.43
380.946	112.54
381.158	72.81
381.369	62.16
381.58	110.49
381.791	38.4
382.002	39.22
382.213	92.47
382.424	56.83
382.635	124.41
382.846	88.37
383.057	82.64
383.268	62.98
383.479	46.59
383.69	60.93
383.9	116.22
384.111	90.01
384.322	39.22
384.533	49.05
384.744	81.82
384.955	91.65
385.166	85.5
385.376	24.06
385.587	128.1
385.798	87.96
386.009	-2.15
386.22	17.92
386.43	102.71
386.641	94.51
386.852	34.71
387.062	77.72
387.273	71.58
387.484	28.16
387.694	31.03
387.905	32.26
388.116	56.01
388.326	61.34
388.537	84.68
388.747	133.83
388.958	153.9
389.168	68.3
389.379	46.18
389.59	29.8
389.8	-14.03
390.011	59.7
390.221	83.45
390.431	83.86
390.642	97.79
390.852	100.66
391.063	23.24
391.273	61.75
391.484	72.81
391.694	37.58
391.904	45.36
392.115	44.54
392.325	36.35
392.535	82.23
392.746	62.57
392.956	81.41
393.166	11.78
393.376	55.19
393.587	137.11
393.797	112.54
394.007	139.57
394.217	76.9
394.427	64.61
394.638	66.25
394.848	111.31
395.058	152.27
395.268	33.48
395.478	78.95
395.688	19.97
395.898	56.83
396.108	115.81
396.318	3.17
396.528	69.94
396.738	68.71
396.948	120.32
397.158	34.71
397.368	104.34
397.578	-22.63
397.788	75.67
397.998	-35.74
398.208	86.32
398.418	-61.13
398.628	24.88
398.838	34.3
399.048	67.07
399.258	73.62
399.467	111.72
399.677	47
399.887	1.13
400.097	22.83
400.307	73.62
400.516	35.94
400.726	49.46
400.936	77.72
401.146	28.98
401.355	65.43
401.565	84.68
401.775	92.06
401.984	93.28
402.194	226.81
402.404	1128.33
402.613	4727.02
402.823	8950.75
403.032	11317.38
403.242	11735.17
403.452	9581.93
403.661	4209.7
403.871	1245.88
404.08	617.56
404.29	372.63
404.499	170.29
404.709	76.9
404.918	126.05
405.128	90.83
405.337	101.48
405.546	184.62
405.756	620.02
405.965	1038.63
406.175	1285.2
406.384	1339.68
406.593	1080
406.803	364.44
407.012	169.06
407.221	62.98
407.43	74.44
407.64	101.07
407.849	24.88
408.058	58.06
408.267	17.92
408.477	29.39
408.686	60.11
408.895	19.97
409.104	71.58
409.313	26.52
409.522	37.99
409.732	40.45
409.941	137.93
410.15	94.92
410.359	101.89
410.568	65.84
410.777	117.04
410.986	76.9
411.195	51.51
411.404	87.96
411.613	61.75
411.822	110.49
412.031	74.85
412.24	69.94
412.449	49.05
412.658	81.41
412.867	103.12
413.075	98.2
413.284	81
413.493	96.56
413.702	97.38
413.911	83.86
414.12	60.93
414.328	99.43
414.537	102.71
414.746	84.27
414.955	82.23
415.164	41.27
415.372	123.19
415.581	166.19
415.79	75.26
415.998	97.38
416.207	121.96
416.416	120.73
416.624	77.31
416.833	104.34
417.042	96.97
417.25	92.88
417.459	24.47
417.667	76.49
417.876	92.47
418.084	37.99
418.293	3.58
418.501	27.75
418.71	33.48
418.918	64.61
419.127	55.19
419.335	38.4
419.544	16.69
419.752	33.89
419.96	139.16
420.169	14.64
420.377	56.42
420.586	81.82
420.794	56.01
421.002	48.23
421.211	70.35
421.419	-3.38
421.627	11.78
421.835	69.12
422.044	23.65
422.252	24.88
422.46	51.51
422.668	29.39
422.877	36.35
423.085	71.58
423.293	86.73
423.501	39.22
423.709	22.02
423.917	35.53
424.125	4.81
424.333	-24.27
424.542	31.44
424.75	59.7
424.958	22.83
425.166	45.36
425.374	145.71
425.582	148.58
425.79	13.41
425.998	-20.58
426.206	57.24
426.414	60.52
426.621	12.6
426.829	12.6
427.037	54.78
427.245	74.03
427.453	73.21
427.661	35.94
427.869	133.02
428.077	74.44
428.284	26.93
428.492	85.09
428.7	61.75
428.908	-6.66
429.115	113.36
429.323	33.07
429.531	44.95
429.739	127.28
429.946	125.64
430.154	61.34
430.362	69.94
430.569	57.65
430.777	100.66
430.985	28.57
431.192	59.7
431.4	150.63
431.607	94.51
431.815	242.79
432.022	244.43
432.23	275.55
432.437	315.69
432.645	397.2
432.852	543.43
433.06	716.69
433.267	969
433.475	2052.37
433.682	8784.05
433.89	24762.71
434.097	34057.21
434.304	39881.63
434.512	38258.82
434.719	24134.39
434.926	7536.83
435.134	2717.55
435.341	1466.65
435.548	837.93
435.756	533.19
435.963	306.68
436.17	249.75
436.377	255.48
436.585	182.58
436.792	156.77
436.999	137.11
437.206	132.61
437.413	181.35
437.621	81
437.828	128.92
438.035	55.19
438.242	102.71
438.449	85.09
438.656	94.51
438.863	147.35
439.07	56.01
439.277	89.6
439.484	60.93
439.691	36.35
439.898	115.81
440.105	42.5
440.312	14.64
440.519	13.41
440.726	101.89
440.933	-12.8
441.14	76.08
441.347	41.68
441.553	68.71
441.76	79.77
441.967	96.15
442.174	56.42
442.381	17.92
442.587	-16.9
442.794	71.17
443.001	13
443.208	7.68
443.414	58.88
443.621	76.08
443.828	68.3
444.035	78.54
444.241	-7.88
444.448	88.78
444.654	52.33
444.861	90.01
445.068	112.54
445.274	23.65
445.481	70.35
445.687	55.6
445.894	1.54
446.101	29.39
446.307	83.45
446.514	22.02
446.72	75.67
446.926	17.92
447.133	17.51
447.339	39.63
447.546	67.48
447.752	48.64
447.959	-24.27
448.165	33.89
448.371	55.19
448.578	75.67
448.784	38.4
448.99	103.52
449.197	-6.25
449.403	59.7
449.609	3.58
449.816	98.61
450.022	19.15
450.228	75.26
450.434	105.98
450.64	22.43
450.847	24.88
451.053	69.94
451.259	40.04
451.465	56.83
451.671	151.45
451.877	112.54
452.083	51.51
452.289	29.8
452.496	-1.33
452.702	13.41
452.908	72.4
453.114	93.69
453.32	-27.14
453.526	19.15
453.732	3.58
453.938	61.75
454.144	44.54
454.349	53.55
454.555	79.36
454.761	129.33
454.967	26.52
455.173	33.89
455.379	142.44
455.585	71.58
455.791	41.68
455.996	44.54
456.202	67.89
456.408	48.23
456.614	82.64
456.819	31.03
457.025	60.93
457.231	60.52
457.437	-1.33
457.642	56.01
457.848	19.56
458.054	51.92
458.259	37.99
458.465	79.36
458.671	8.5
458.876	50.28
459.082	97.38
459.287	-5.02
459.493	92.06
459.698	26.93
459.904	23.24
460.109	68.3
460.315	61.34
460.52	2.36
460.726	40.04
460.931	66.66
461.137	62.16
461.342	112.54
461.548	19.56
461.753	93.69
461.958	45.77
462.164	112.54
462.369	-0.51
462.574	67.48
462.78	42.09
462.985	56.01
463.19	103.52
463.396	125.64
463.601	71.58
463.806	71.99
464.011	33.07
464.216	-34.92
464.422	76.08
464.627	133.02
464.832	-0.51
465.037	68.71
465.242	121.96
465.447	103.93
465.653	123.19
465.858	119.5
466.063	130.15
466.268	96.56
466.473	62.16
466.678	188.31
466.883	78.95
467.088	128.51
467.293	74.85
467.498	75.67
467.703	46.18
467.908	19.97
468.113	19.97
468.317	85.09
468.522	158.41
468.727	97.79
468.932	-16.9
469.137	68.3
469.342	34.71
469.547	10.96
469.751	63.79
469.956	100.66
470.161	45.77
470.366	127.28
470.57	114.99
470.775	97.38
470.98	117.45
471.185	84.68
471.389	63.79
471.594	91.24
471.799	11.37
472.003	146.94
472.208	124.41
472.412	93.69
472.617	37.17
472.822	112.13
473.026	107.62
473.231	125.64
473.435	58.88
473.64	110.9
473.844	61.75
474.049	92.06
474.253	82.64
474.458	110.49
474.662	78.54
474.866	89.19
475.071	96.56
475.275	51.1
475.48	110.9
475.684	114.99
475.888	62.57
476.093	126.46
476.297	147.35
476.501	165.37
476.706	88.37
476.91	159.64
477.114	189.54
477.318	154.31
477.523	155.13
477.727	178.07
477.931	151.04
478.135	201.01
478.339	244.43
478.543	185.03
478.748	223.54
478.952	306.27
479.156	263.68
479.36	413.18
479.564	359.11
479.768	502.06
479.972	521.72
480.176	570.05
480.38	606.51
480.584	712.18
480.788	769.11
480.992	921.48
481.196	980.47
481.4	1239.74
481.604	1292.58
481.808	1445.76
482.012	1626.8
482.215	1729.61
482.419	1851.67
482.623	2024.52
482.827	2158.05
483.031	2388.65
483.235	2542.66
483.438	2713.87
483.642	2923.17
483.846	3296.31
484.05	3598.59
484.253	3760.38
484.457	4064.71
484.661	4304.73
484.864	4584.89
485.068	4620.12
485.272	4661.48
485.475	4690.57
485.679	4697.12
485.883	4642.23
486.086	4534.51
486.29	4474.71
486.493	4345.69
486.697	4228.54
486.9	4026.2
487.104	3888.58
487.307	3726.79
487.511	3652.65
487.714	3466.7
487.918	3392.97
488.121	3239.78
488.325	3156.64
488.528	3012.46
488.731	3100.11
488.935	2975.6
489.138	2977.23
489.341	2877.7
489.545	3063.25
489.748	3198.82
489.951	3213.98
490.155	3222.17
490.358	3053.01
490.561	2783.5
490.764	2649.97
490.967	2597.13
491.171	2517.26
491.374	2470.57
491.577	2375.13
491.78	2319.02
491.983	2276.83
492.186	2154.77
492.39	2173.2
492.593	2032.71
492.796	2067.53
492.999	2000.35
493.202	1977.42
493.405	1886.9
493.608	1823
493.811	1792.28
494.014	1732.89
494.217	1710.36
494.42	1704.63
494.623	1681.28
494.826	1589.53
495.029	1504.75
495.231	1494.1
495.434	1464.6
495.637	1451.91
495.84	1450.27
496.043	1288.07
496.246	1336.4
496.448	1320.43
496.651	1289.71
496.854	1138.98
497.057	1161.1
497.259	1162.32
497.462	1012.82
497.665	963.26
497.868	896.09
498.07	928.86
498.273	971.04
498.476	934.18
498.678	891.99
498.881	876.84
499.083	725.29
499.286	818.27
499.489	667.13
499.691	666.72
499.894	646.24
500.096	637.23
500.299	486.49
500.501	541.38
500.704	451.68
500.906	534.83
501.109	486.09
501.311	455.78
501.513	398.02
501.716	373.45
501.918	367.3
502.121	404.58
502.323	303.41
502.525	337.4
502.728	363.62
502.93	294.81
503.132	262.45
503.334	262.45
503.537	294.4
503.739	230.5
503.941	163.33
504.143	287.43
504.346	212.48
504.548	214.52
504.75	253.44
504.952	169.06
505.154	160.46
505.356	236.23
505.558	215.34
505.761	250.16
505.963	178.89
506.165	270.23
506.367	207.56
506.569	220.67
506.771	239.92
506.973	180.94
507.175	175.61
507.377	347.23
507.579	220.26
507.781	212.07
507.982	216.16
508.184	238.69
508.386	216.57
508.588	160.46
508.79	154.31
508.992	189.13
509.194	185.85
509.395	223.13
509.597	93.69
509.799	182.99
510.001	198.96
510.203	139.16
510.404	104.34
510.606	134.65
510.808	169.06
511.009	109.26
511.211	121.55
511.413	203.06
511.614	138.75
511.816	169.88
512.018	159.23
512.219	126.05
512.421	122.37
512.622	126.87
512.824	51.51
513.025	73.21
513.227	81.41
513.428	208.79
513.63	89.6
513.831	105.98
514.033	154.72
514.234	53.14
514.436	168.65
514.637	127.69
514.838	189.54
515.04	113.76
515.241	98.2
515.443	227.22
515.644	86.32
515.845	131.79
516.046	60.11
516.248	149.4
516.449	136.7
516.65	102.3
516.851	92.06
517.053	106.39
517.254	87.96
517.455	137.93
517.656	81
517.857	54.37
518.059	110.08
518.26	119.91
518.461	96.97
518.662	113.76
518.863	88.37
519.064	99.43
519.265	58.88
519.466	110.08
519.667	124.82
519.868	197.73
520.069	53.96
520.27	41.27
520.471	67.48
520.672	107.62
520.873	101.07
521.074	124.41
521.275	82.23
521.476	56.83
521.676	158.82
521.877	123.19
522.078	145.3
522.279	83.05
522.48	100.25
522.681	119.5
522.881	96.15
523.082	35.12
523.283	77.72
523.483	51.1
523.684	110.08
523.885	103.12
524.086	104.34
524.286	81.82
524.487	91.65
524.687	154.31
524.888	100.25
525.089	128.51
525.289	112.54
525.49	75.26
525.69	170.7
525.891	241.15
526.091	196.91
526.292	130.56
526.492	211.66
526.693	176.02
526.893	103.52
527.094	153.9
527.294	103.52
527.495	131.79
527.695	178.07
527.895	148.58
528.096	153.9
528.296	133.83
528.496	175.61
528.697	215.34
528.897	202.65
529.097	167.42
529.298	220.26
529.498	174.79
529.698	178.89
529.898	207.97
530.098	182.58
530.299	284.57
530.499	308.73
530.699	403.35
530.899	510.66
531.099	660.98
531.299	817.86
531.499	1077.95
531.7	1340.09
531.9	1490.82
532.1	1350.74
532.3	1315.92
532.5	1043.13
532.7	871.1
532.9	727.75
533.1	638.45
533.3	637.64
533.5	749.86
533.699	743.31
533.899	794.92
534.099	846.53
534.299	932.54
534.499	981.28
534.699	1120.96
534.899	1256.94
535.098	1452.32
535.298	1706.67
535.498	2023.7
535.698	2350.56
535.898	2790.05
536.097	3145.99
536.297	3477.35
536.497	3670.27
536.696	3816.49
536.896	3877.11
537.096	3985.24
537.295	4265
537.495	4496.01
537.695	4894.13
537.894	5662.53
538.094	6642.28
538.293	7701.49
538.493	9076.9
538.692	10408.08
538.892	11870.74
539.091	13425.15
539.291	16109.63
539.49	19734.53
539.69	23735.45
539.889	27017.93
540.089	29230.15
540.288	29543.89
540.487	28268.01
540.687	26166.38
540.886	23644.93
541.085	21338.09
541.285	19742.73
541.484	18606.92
541.683	18282.52
541.883	18000.72
542.082	18075.27
542.281	18110.09
542.48	18550.81
542.68	18772.81
542.879	18708.09
543.078	18842.44
543.277	18787.96
543.476	18814.59
543.675	19455.19
543.874	24102.03
544.074	39630.14
544.273	49405.51
544.472	53700.91
544.671	53492.84
544.87	46777.55
545.069	29042.14
545.268	21034.58
545.467	18411.96
545.666	16951.34
545.865	15960.54
546.064	15098.75
546.263	14320.11
546.462	13684.02
546.66	13244.52
546.859	12633.41
547.058	11943.65
547.257	11280.52
547.456	10645.65
547.655	9828.51
547.853	9449.64
548.052	8811.49
548.251	8417.46
548.45	8063.57
548.648	7632.68
548.847	7143.62
549.046	6832.74
549.245	6260.54
549.443	5885.76
549.642	5585.94
549.841	5217.3
550.039	4874.06
550.238	4532.87
550.436	4383.37
550.635	4133.11
550.834	3879.16
551.032	3621.53
551.231	3413.04
551.429	3231.59
551.628	3046.46
551.826	2909.65
552.025	2764.25
552.223	2595.49
552.421	2463.6
552.62	2414.04
552.818	2190
553.017	1975.37
553.215	1822.18
553.413	1707.9
553.612	1533.83
553.81	1471.16
554.008	1326.57
554.207	1307.32
554.405	1264.31
554.603	1161.51
554.801	1147.17
555	1134.47
555.198	1082.45
555.396	987.43
555.594	912.88
555.792	906.74
555.991	819.49
556.189	885.44
556.387	845.3
556.585	784.68
556.783	809.25
556.981	703.58
557.179	790.82
557.377	697.44
557.575	696.21
557.773	693.75
557.971	657.3
558.169	603.64
558.367	642.96
558.565	562.68
558.763	542.2
558.961	581.52
559.159	497.96
559.357	558.58
559.554	591.35
559.752	624.53
559.95	493.05
560.148	526.64
560.346	552.44
560.544	591.35
560.741	552.44
560.939	563.5
561.137	580.29
561.334	525.41
561.532	584.8
561.73	535.65
561.928	518.85
562.125	479.12
562.323	506.57
562.52	386.14
562.718	469.7
562.916	512.71
563.113	437.75
563.311	438.57
563.508	433.66
563.706	391.88
563.903	429.56
564.101	456.19
564.298	460.69
564.496	420.55
564.693	409.08
564.891	356.65
565.088	442.26
565.285	358.7
565.483	410.31
565.68	355.83
565.878	433.66
566.075	402.12
566.272	375.5
566.469	374.68
566.667	367.71
566.864	437.75
567.061	439.8
567.259	455.37
567.456	407.44
567.653	381.23
567.85	371.81
568.047	349.28
568.244	342.73
568.442	234.19
568.639	278.83
568.836	230.5
569.033	238.28
569.23	214.12
569.427	257.94
569.624	224.35
569.821	217.8
570.018	222.72
570.215	247.29
570.412	243.61
570.609	165.78
570.806	282.11
571.003	222.31
571.2	275.55
571.397	296.44
571.594	216.57
571.791	254.26
571.987	214.52
572.184	260.81
572.381	326.34
572.578	282.11
572.775	291.12
572.971	289.48
573.168	313.24
573.365	333.72
573.562	332.9
573.758	433.25
573.955	400.89
574.152	417.68
574.348	533.6
574.545	712.18
574.742	1479.35
574.938	4533.28
575.135	7350.47
575.331	8481.36
575.528	8866.37
575.725	7744.5
575.921	4424.74
576.118	2221.12
576.314	1620.66
576.511	1353.6
576.707	1417.5
576.903	2360.8
577.1	5207.88
577.296	7191.14
577.493	8020.15
577.689	8080.77
577.885	6607.87
578.082	3745.22
578.278	3220.53
578.474	3865.64
578.671	4557.04
578.867	4849.9
579.063	4631.17
579.26	3973.78
579.456	3134.11
579.652	2744.99
579.848	2786.77
580.044	3037.85
580.241	3282.79
580.437	3710.41
580.633	4129.42
580.829	4367.4
581.025	4604.14
581.221	4591.44
581.417	4639.37
581.613	4710.64
581.809	4752.82
582.005	4607.42
582.201	4548.44
582.397	4510.34
582.593	4429.65
582.789	4262.95
582.985	4115.09
583.181	4106.07
583.377	4055.69
583.573	3846.39
583.769	3767.34
583.965	3733.75
584.161	3621.94
584.357	3577.29
584.552	3538.79
584.748	3717.37
584.944	4203.97
585.14	5322.57
585.335	7045.32
585.531	9005.64
585.727	10128.74
585.923	10359.75
586.118	9470.11
586.314	7622.85
586.51	5787.05
586.705	4608.24
586.901	3808.71
587.097	3362.66
587.292	3007.13
587.488	2774.08
587.683	2584.02
587.879	2479.17
588.074	2452.54
588.27	2345.64
588.465	2392.33
588.661	2495.55
588.856	2539.79
589.052	2618.02
589.247	2792.92
589.443	2852.31
589.638	3101.34
589.833	3179.98
590.029	3438.44
590.224	3617.84
590.419	4006.95
590.615	4486.18
590.81	5194.78
591.005	5936.14
591.201	6991.25
591.396	7763.34
591.591	8258.13
591.786	8039.81
591.981	7353.74
592.177	6270.78
592.372	5309.87
592.567	4347.74
592.762	3675.18
592.957	3165.24
593.152	2899.41
593.347	2627.03
593.543	2425.92
593.738	2299.36
593.933	2257.17
594.128	2242.83
594.323	2180.57
594.518	2148.63
594.713	2171.56
594.908	2217.85
595.103	2212.11
595.297	2147.4
595.492	2144.94
595.687	2038.86
595.882	2109.31
596.077	2189.18
596.272	2226.04
596.467	2443.12
596.661	2728.61
596.856	3129.19
597.051	3388.88
597.246	3868.51
597.441	4164.24
597.635	4670.09
597.83	4807.71
598.025	5051.83
598.219	4921.58
598.414	4685.65
598.609	4324.8
598.803	3864.82
598.998	3426.97
599.193	3034.17
599.387	2703.22
599.582	2391.93
599.776	2250.62
599.971	1979.05
600.165	1843.89
600.36	1718.14
600.554	1645.65
600.749	1544.07
600.943	1462.97
601.138	1378.59
601.332	1382.69
601.526	1332.72
601.721	1317.15
601.915	1403.58
602.11	1355.65
602.304	1546.52
602.498	1466.65
602.693	1518.26
602.887	1614.52
603.081	1608.37
603.275	1637.45
603.47	1613.7
603.664	1716.51
603.858	1721.01
604.052	1798.01
604.246	1878.7
604.441	1859.04
604.635	1949.97
604.829	2073.67
605.023	2137.57
605.217	2337.86
605.411	2312.05
605.605	2543.07
605.799	2770.8
605.993	2952.66
606.187	3127.56
606.381	3376.18
606.575	3721.88
606.769	3996.3
606.963	4445.63
607.157	5017.83
607.351	5493.78
607.545	6337.13
607.739	7459.01
607.933	8559.18
608.126	10198.37
608.32	12576.47
608.514	15781.14
608.708	20463.2
608.902	28268.42
609.095	40432.13
609.289	55649.35
609.483	62399.87
609.677	62399.87
609.87	62399.87
610.064	62399.87
610.258	62387.58
610.451	50564.25
610.645	40246.99
610.839	33229.01
611.032	28650.98
611.226	26049.24
611.419	23742.82
611.613	22362.49
611.806	21061.62
612	19891.82
612.193	19039.86
612.387	18429.98
612.58	18046.19
612.774	18002.77
612.967	17784.46
613.161	16892.36
613.354	15781.95
613.548	14451.18
613.741	12965.59
613.934	11414.05
614.128	10014.06
614.321	8804.12
614.514	7875.16
614.707	6964.63
614.901	6247.02
615.094	5795.24
615.287	5265.23
615.48	4942.87
615.674	4501.74
615.867	4241.65
616.06	4002.45
616.253	3727.61
616.446	3543.29
616.639	3408.54
616.833	3338.5
617.026	3200.87
617.219	3055.06
617.412	2962.9
617.605	3075.54
617.798	3023.11
617.991	2991.57
618.184	3050.14
618.377	3030.89
618.57	3104.21
618.763	3219.71
618.956	3277.47
619.149	3243.06
619.341	3281.97
619.534	3337.27
619.727	3404.85
619.92	3361.43
620.113	3410.99
620.306	3285.25
620.498	3315.56
620.691	3365.12
620.884	3413.04
621.077	3556.4
621.269	3644.05
621.462	3816.49
621.655	3941.01
621.848	4058.56
622.04	4189.63
622.233	4205.2
622.425	4135.57
622.618	4172.84
622.811	4122.05
623.003	4203.56
623.196	4286.3
623.388	4253.94
623.581	4258.44
623.773	4241.24
623.966	4398.93
624.158	4369.85
624.351	4376.41
624.543	4412.45
624.736	4320.7
624.928	4373.13
625.121	4346.92
625.313	4295.31
625.505	4145.81
625.698	4259.67
625.89	4093.38
626.082	4067.57
626.275	3974.6
626.467	3926.26
626.659	3873.43
626.851	3986.06
627.044	3900.87
627.236	3898.82
627.428	3931.18
627.62	4028.25
627.812	4062.66
628.004	4228.95
628.197	4563.18
628.389	4811.4
628.581	5512.62
628.773	6550.12
628.965	7636.77
629.157	8860.64
629.349	9765.84
629.541	9917.39
629.733	9688.43
629.925	8547.3
630.117	6981.01
630.309	5672.77
630.501	4464.06
630.693	3438.44
630.885	2766.7
631.077	2272.73
631.268	1981.1
631.46	1749.27
631.652	1519.9
631.844	1364.66
632.036	1266.77
632.228	1252.44
632.419	1182.39
632.611	1085.73
632.803	1035.76
632.995	1073.85
633.186	982.51
633.378	1062.79
633.57	934.59
633.761	929.27
633.953	964.08
634.144	878.07
634.336	865.78
634.528	866.19
634.719	745.36
634.911	801.06
635.102	772.39
635.294	690.06
635.485	821.13
635.677	733.48
635.868	645.01
636.06	698.66
636.251	687.61
636.443	724.06
636.634	704.4
636.825	711.36
637.017	645.42
637.208	624.94
637.399	636
637.591	656.48
637.782	559.81
637.973	637.64
638.165	570.05
638.356	648.28
638.547	634.77
638.738	601.18
638.929	646.65
639.121	613.06
639.312	560.22
639.503	556.13
639.694	592.17
639.885	611.83
640.076	569.64
640.267	583.16
640.458	645.83
640.649	590.53
640.841	568.82
641.032	634.36
641.223	695.8
641.414	571.28
641.604	585.21
641.795	595.45
641.986	583.16
642.177	671.22
642.368	614.29
642.559	667.13
642.75	575.79
642.941	623.71
643.132	655.66
643.322	615.11
643.513	636
643.704	624.94
643.895	656.89
644.085	577.83
644.276	556.13
644.467	604.05
644.658	620.02
644.848	611.83
645.039	592.17
645.23	610.6
645.42	483.22
645.611	565.55
645.801	610.6
645.992	527.45
646.183	576.61
646.373	642.55
646.564	508.2
646.754	609.37
646.945	603.64
647.135	683.1
647.326	631.08
647.516	761.33
647.707	830.14
647.897	936.23
648.087	1123.41
648.278	1496.96
648.468	1955.71
648.658	2357.52
648.849	2707.31
649.039	2804.39
649.229	2629.49
649.42	2286.25
649.61	1974.55
649.8	1629.26
649.99	1440.44
650.181	1221.72
650.371	1140.21
650.561	981.69
650.751	969.82
650.941	931.72
651.131	1009.14
651.321	1235.23
651.512	1245.06
651.702	1251.62
651.892	1181.99
652.082	1089.42
652.272	1004.63
652.462	909.61
652.652	768.3
652.842	722.42
653.032	692.11
653.222	676.14
653.412	645.83
653.601	627.8
653.791	666.31
653.981	654.02
654.171	614.29
654.361	629.44
654.551	563.91
654.741	558.17
654.93	586.44
655.12	631.49
655.31	631.49
655.5	601.59
655.689	616.75
655.879	764.61
656.069	751.5
656.258	826.87
656.448	844.48
656.638	774.85
656.827	771.16
657.017	597.09
657.207	597.9
657.396	508.61
657.586	443.08
657.775	574.97
657.965	416.45
658.154	450.04
658.344	448.81
658.533	364.85
658.723	339.45
658.912	424.24
659.102	327.57
659.291	353.79
659.48	407.03
659.67	420.14
659.859	522.95
660.048	585.62
660.238	858.82
660.427	1082.86
660.616	1313.06
660.806	1673.5
660.995	1707.49
661.184	1668.17
661.373	1384.73
661.562	1212.3
661.752	982.51
661.941	898.96
662.13	835.47
662.319	797.79
662.508	671.22
662.697	678.59
662.886	536.06
663.075	542.61
663.264	381.64
663.453	503.7
663.643	413.18
663.832	427.92
664.02	403.76
664.209	451.68
664.398	438.16
664.587	479.12
664.776	472.98
664.965	455.37
665.154	386.55
665.343	478.3
665.532	429.15
665.721	412.77
665.909	436.11
666.098	468.88
666.287	391.06
666.476	416.04
666.664	355.02
666.853	407.85
667.042	454.55
667.231	360.75
667.419	358.7
667.608	382.46
667.797	404.99
667.985	401.3
668.174	345.19
668.362	404.99
668.551	351.33
668.739	368.94
668.928	352.56
669.117	355.02
669.305	291.94
669.494	438.16
669.682	405.81
669.87	362.39
670.059	379.18
670.247	336.58
670.436	377.54
670.624	336.58
670.812	355.83
671.001	379.18
671.189	190.36
671.377	334.54
671.566	312.42
671.754	323.89
671.942	318.97
672.131	241.15
672.319	302.18
672.507	336.99
672.695	259.17
672.883	291.94
673.072	296.85
673.26	335.76
673.448	288.66
673.636	282.52
673.824	237.87
674.012	318.15
674.2	271.46
674.388	323.48
674.576	260.4
674.764	279.65
674.952	291.53
675.14	259.17
675.328	311.19
675.516	219.85
675.704	203.06
675.892	264.9
676.08	230.5
676.268	316.51
676.456	230.09
676.643	234.59
676.831	250.98
677.019	321.02
677.207	296.85
677.395	239.92
677.582	327.98
677.77	336.58
677.958	375.9
678.146	308.32
678.333	364.44
678.521	300.54
678.709	362.8
678.896	294.4
679.084	350.1
679.271	363.62
679.459	331.67
679.647	315.28
679.834	375.09
680.022	302.18
680.209	305.04
680.397	326.75
680.584	303.82
680.772	340.27
680.959	289.48
681.147	295.21
681.334	272.28
681.521	214.52
681.709	356.24
681.896	303.82
682.083	278.01
682.271	300.95
682.458	285.38
682.645	336.99
682.833	317.74
683.02	316.1
683.207	280.06
683.394	315.69
683.582	321.02
683.769	407.03
683.956	290.3
684.143	400.07
684.33	403.76
684.517	475.44
684.705	524.59
684.892	547.52
685.079	704.4
685.266	807.62
685.453	939.92
685.64	1151.68
685.827	1222.13
686.014	1272.91
686.201	1340.09
686.388	1250.8
686.575	1181.99
686.762	1073.44
686.948	913.29
687.135	751.91
687.322	683.92
687.509	612.65
687.696	445.13
687.883	485.27
688.07	359.93
688.256	330.85
688.443	319.79
688.63	282.93
688.817	321.43
689.003	419.32
689.19	303.82
689.377	294.81
689.563	290.3
689.75	253.44
689.937	195.27
690.123	213.71
690.31	232.14
690.496	138.75
690.683	223.13
690.869	190.77
691.056	250.16
691.242	300.95
691.429	439.8
691.615	620.43
691.802	820.72
691.988	998.49
692.175	1068.94
692.361	1026.34
692.548	905.51
692.734	725.29
692.92	497.96
693.107	348.05
693.293	337.4
693.479	301.36
693.665	207.15
693.852	151.45
694.038	203.88
694.224	263.68
694.41	214.93
694.597	291.12
694.783	440.62
694.969	385.73
695.155	337.81
695.341	381.23
695.527	231.32
695.713	181.35
695.9	131.79
696.086	79.77
696.272	126.87
696.458	144.48
696.644	81.82
696.83	136.7
697.016	110.08
697.202	123.59
697.387	102.3
697.573	123.19
697.759	140.39
697.945	162.51
698.131	143.67
698.317	119.91
698.503	141.62
698.689	80.18
698.874	108.44
699.06	44.95
699.246	86.32
699.432	153.9
699.617	179.3
699.803	154.31
699.989	117.04
700.174	165.78
700.36	152.27
700.546	132.61
700.731	161.28
700.917	199.37
701.103	162.51
701.288	175.61
701.474	234.59
701.659	249.34
701.845	267.77
702.03	296.44
702.216	415.64
702.401	482.81
702.587	387.37
702.772	411.95
702.958	362.39
703.143	506.57
703.328	466.02
703.514	560.22
703.699	617.97
703.884	685.97
704.07	830.14
704.255	1088.6
704.44	1274.55
704.626	1491.23
704.811	1938.1
704.996	2255.12
705.181	2452.54
705.366	2654.88
705.552	2720.01
705.737	2643.83
705.922	2410.77
706.107	2138.8
706.292	1860.68
706.477	1718.55
706.662	1582.16
706.847	1669.4
707.032	1967.18
707.217	2549.21
707.402	3055.06
707.587	3294.67
707.772	3013.28
707.957	2673.73
708.142	2201.05
708.327	1622.71
708.512	1156.59
708.697	941.55
708.882	753.96
709.067	667.13
709.252	569.23
709.436	671.22
709.621	689.65
709.806	882.98
709.991	1090.65
710.175	1526.04
710.36	1901.64
710.545	2208.02
710.73	2429.61
710.914	2530.37
711.099	2344.41
711.284	2179.76
711.468	1816.86
711.653	1420.37
711.837	1033.71
712.022	893.63
712.206	553.26
712.391	494.69
712.576	409.08
712.76	346.41
712.944	319.38
713.129	292.35
713.313	219.44
713.498	225.58
713.682	198.14
713.867	214.93
714.051	114.99
714.235	73.21
714.42	149.81
714.604	26.52
714.788	135.47
714.973	57.24
715.157	63.79
715.341	68.3
715.525	108.44
715.71	100.25
715.894	86.32
716.078	152.68
716.262	82.64
716.446	77.31
716.63	102.3
716.815	33.48
716.999	84.68
717.183	126.87
717.367	132.2
717.551	136.7
717.735	78.95
717.919	65.43
718.103	80.59
718.287	59.7
718.471	103.12
718.655	121.55
718.839	58.47
719.023	95.33
719.207	131.79
719.39	105.16
719.574	83.45
719.758	101.48
719.942	72.4
720.126	112.54
720.31	35.94
720.493	65.02
720.677	37.58
720.861	115.81
721.044	5.22
721.228	22.43
721.412	-2.56
721.596	53.14
721.779	52.33
721.963	16.28
722.146	5.63
722.33	92.47
722.514	69.94
722.697	82.23
722.881	103.93
723.064	10.55
723.248	40.04
723.431	67.48
723.615	45.77
723.798	69.94
723.982	15.05
724.165	65.43
724.348	21.61
724.532	129.74
724.715	26.11
724.898	40.04
725.082	57.65
725.265	98.2
725.448	102.3
725.632	51.51
725.815	153.09
725.998	119.91
726.181	48.64
726.365	53.55
726.548	59.7
726.731	69.53
726.914	11.78
727.097	85.09
727.28	70.35
727.463	55.6
727.647	111.72
727.83	34.3
728.013	67.48
728.196	63.38
728.379	83.86
728.562	75.67
728.745	78.13
728.928	94.1
729.111	-9.52
729.294	61.75
729.476	12.6
729.659	66.25
729.842	86.32
730.025	45.77
730.208	75.26
730.391	71.99
730.574	44.95
730.756	87.55
730.939	88.78
731.122	166.6
731.305	55.19
731.487	33.48
731.67	13
731.853	61.75
732.035	0.72
732.218	65.02
732.401	87.55
732.583	60.11
732.766	16.69
732.948	22.02
733.131	56.01
733.313	92.06
733.496	112.95
733.678	55.6
733.861	3.58
734.043	11.37
734.226	-43.93
734.408	29.39
734.591	27.34
734.773	74.85
734.956	-32.87
735.138	-11.57
735.32	36.76
735.503	113.76
735.685	43.31
735.867	77.31
736.049	78.95
736.232	135.06
736.414	87.55
736.596	294.81
736.778	333.72
736.961	367.3
737.143	313.24
737.325	312.42
737.507	241.97
737.689	139.98
737.871	56.01
738.053	134.65
738.235	16.28
738.417	81
738.599	68.71
738.781	49.46
738.963	-1.33
739.145	98.2
739.327	81
739.509	-12.8
739.691	63.38
739.873	75.26
740.055	88.37
740.237	128.92
740.419	132.61
740.601	135.88
740.782	85.91
740.964	126.05
741.146	104.75
741.328	254.26
741.509	68.3
741.691	38.4
741.873	113.36
742.055	138.75
742.236	108.44
742.418	135.06
742.6	51.51
742.781	-35.33
742.963	4.81
743.144	-2.97
743.326	118.68
743.508	20.79
743.689	21.2
743.871	94.51
744.052	25.29
744.234	63.38
744.415	-31.64
744.596	37.17
744.778	28.57
744.959	22.43
745.141	1.13
745.322	100.66
745.503	41.68
745.685	105.98
745.866	-3.79
746.047	4.4
746.229	58.88
746.41	24.47
746.591	43.31
746.772	24.47
746.954	-2.97
747.135	15.46
747.316	22.43
747.497	50.69
747.678	22.83
747.859	8.91
748.041	50.69
748.222	118.68
748.403	240.33
748.584	257.94
748.765	302.18
748.946	348.46
749.127	361.57
749.308	369.76
749.489	302.18
749.67	358.29
749.851	429.97
750.032	295.62
750.212	339.04
750.393	312.01
750.574	178.48
750.755	187.9
750.936	67.07
751.117	28.98
751.297	37.58
751.478	98.2
751.659	-0.51
751.84	75.26
752.02	70.76
752.201	1.95
752.382	3.17
752.562	-14.44
752.743	46.18
752.924	58.47
753.104	61.34
753.285	5.63
753.466	62.16
753.646	-45.57
753.827	74.44
754.007	10.96
754.188	76.9
754.368	52.74
754.549	67.48
754.729	35.94
754.909	38.81
755.09	72.81
755.27	-5.84
755.451	51.1
755.631	-2.97
755.811	34.71
755.992	-26.32
756.172	44.54
756.352	60.93
756.533	32.26
756.713	-44.75
756.893	34.3
757.073	10.55
757.253	85.09
757.434	34.3
757.614	-31.23
757.794	80.59
757.974	-12.39
758.154	-8.29
758.334	107.21
758.514	-2.15
758.694	47
758.875	60.93
759.055	71.99
759.235	39.63
759.415	12.6
759.594	7.27
759.774	-0.92
759.954	58.06
760.134	-4.61
760.314	71.58
760.494	47.41
760.674	33.89
760.854	2.36
761.034	53.96
761.213	53.96
761.393	87.14
761.573	339.45
761.753	638.04
761.932	872.74
762.112	887.49
762.292	864.96
762.472	788.78
762.651	504.52
762.831	317.74
763.01	293.99
763.19	145.3
763.37	118.27
763.549	131.38
763.729	62.16
763.908	43.31
764.088	53.96
764.267	-2.56
764.447	43.72
764.626	10.96
764.806	80.18
764.985	16.69
765.165	6.45
765.344	-8.29
765.523	94.92
765.703	25.7
765.882	51.92
766.061	-53.76
766.241	73.21
766.42	22.02
766.599	54.78
766.779	-5.43
766.958	6.04
767.137	5.63
767.316	8.09
767.495	108.03
767.675	7.27
767.854	4.81
768.033	96.56
768.212	69.94
768.391	3.17
768.57	87.55
768.749	83.86
768.928	-11.98
769.107	21.2
769.286	23.24
769.465	36.76
769.644	45.77
769.823	35.12
770.002	26.93
770.181	20.79
770.36	78.54
770.539	174.38
770.718	350.1
770.896	386.55
771.075	403.35
771.254	456.19
771.433	435.71
771.612	219.85
771.79	183.81
771.969	105.98
772.148	95.74
772.326	21.61
772.505	47
772.684	54.37
772.862	38.4
773.041	66.66
773.22	-13.62
773.398	32.67
773.577	10.14
773.755	62.98
773.934	47.82
774.112	-10.75
774.291	42.09
774.469	59.29
774.648	77.31
774.826	-8.7
775.005	-14.85
775.183	33.48
775.362	33.89
775.54	108.44
775.718	78.54
775.897	103.93
776.075	-26.32
776.253	24.88
776.432	26.52
776.61	44.13
776.788	18.74
776.966	4.4
777.144	1.13
777.323	-7.88
777.501	22.43
777.679	72.81
777.857	43.31
778.035	17.1
778.213	49.87
778.391	6.86
778.57	-45.16
778.748	61.75
778.926	87.55
779.104	40.86
779.282	50.28
779.46	38.4
779.638	14.23
779.815	42.5
779.993	40.86
780.171	-8.29
780.349	0.72
780.527	65.84
780.705	-10.75
780.883	61.75
781.061	112.13
781.238	1.54
781.416	51.92
781.594	64.61
781.772	-62.36
781.949	-0.1
782.127	64.2
782.305	22.83
782.482	-41.47
782.66	-47.62
782.838	-69.73
783.015	69.94
783.193	-6.25
783.37	-7.07
783.548	67.89
783.726	39.22
783.903	50.28
784.081	-42.7
784.258	79.77
784.436	35.12
784.613	-17.71
784.79	40.86
784.968	112.95
785.145	-28.36
785.323	-20.99
785.5	1.95
785.677	-54.58
785.855	-75.47
786.032	81.82
786.209	24.06
786.386	-28.77
786.564	36.76
786.741	-7.07
786.918	33.07
787.095	-19.76
787.273	16.28
787.45	15.46
787.627	48.23
787.804	-10.34
787.981	33.07
788.158	40.86
788.335	-61.54
788.512	-12.39
788.689	65.43
788.866	-28.36
789.043	121.55
789.22	84.27
789.397	11.37
789.574	16.69
789.751	62.16
789.928	23.65
790.105	48.64
790.282	27.34
790.459	-31.64
790.635	-7.88
790.812	-43.52
790.989	33.07
791.166	20.38
791.343	51.51
791.519	60.11
791.696	97.38
791.873	-0.1
792.049	11.78
792.226	-0.92
792.403	66.25
792.579	68.3
792.756	78.54
792.933	52.33
793.109	80.59
793.286	171.93
793.462	190.36
793.639	247.7
793.815	180.53
793.992	188.72
794.168	141.62
794.345	130.97
794.521	131.38
794.698	11.37
794.874	23.24
795.05	42.5
795.227	24.06
795.403	50.28
795.579	62.57
795.756	63.38
795.932	47.82
796.108	56.83
796.285	26.52
796.461	41.27
796.637	0.31
796.813	42.09
796.989	-11.16
797.166	15.87
797.342	-14.85
797.518	67.48
797.694	-10.75
797.87	68.3
798.046	10.55
798.222	99.02
798.398	-16.08
798.574	57.65
798.75	-26.32
798.926	-6.66
799.102	32.67
799.278	102.71
799.454	176.84
799.63	173.16
799.806	223.95
799.982	255.07
800.157	203.47
800.333	309.96
800.509	257.53
800.685	237.05
800.861	264.9
801.036	149.4
801.212	63.79
801.388	110.08
801.564	3.17
801.739	119.5
801.915	48.23
802.091	-18.53
802.266	45.36
802.442	-1.74
802.617	16.69
802.793	113.76
802.969	87.55
803.144	41.68
803.32	-6.25
803.495	67.07
803.671	10.14
803.846	33.48
804.022	-2.97
804.197	83.86
804.372	78.13
804.548	13.41
804.723	6.86
804.898	-7.07
805.074	-25.5
805.249	28.98
805.424	82.64
805.6	-28.36
805.775	99.84
805.95	85.09
806.125	32.67
806.301	-0.51
806.476	-16.9
806.651	17.1
806.826	43.72
807.001	84.27
807.176	53.96
807.352	15.87
807.527	50.69
807.702	40.04
807.877	-0.92
808.052	-8.7
808.227	30.21
808.402	11.78
808.577	78.13
808.752	28.16
808.927	116.22
809.102	139.57
809.276	197.32
809.451	262.86
809.626	273.51
809.801	185.44
809.976	305.45
810.151	336.58
810.325	501.24
810.5	561.45
810.675	662.21
810.85	666.72
811.024	564.73
811.199	375.5
811.374	284.57
811.548	131.38
811.723	103.93
811.898	94.92
812.072	73.21
812.247	130.97
812.421	32.26
812.596	29.39
812.77	93.28
812.945	74.03
813.119	75.26
813.294	55.19
813.468	62.16
813.643	92.47
813.817	53.55
813.992	29.8
814.166	14.64
814.34	-12.39
814.515	-22.22
814.689	-32.46
814.863	-74.24
815.038	-23.45
815.212	-23.04
815.386	30.62
815.56	-12.39
815.735	-0.92
815.909	44.54
816.083	44.54
816.257	113.76
816.431	33.48
816.605	52.74
816.78	37.99
816.954	1.13
817.128	3.99
817.302	51.51
817.476	63.38
817.65	7.68
817.824	92.47
817.998	10.14
818.172	2.36
818.346	-41.06
818.52	24.47
818.694	-25.5
818.867	109.67
819.041	47.41
819.215	-40.65
819.389	-43.52
819.563	49.46
819.737	-77.52
819.91	-48.43
820.084	8.5
820.258	22.02
820.432	11.78
820.605	56.42
820.779	-19.76
820.953	4.81
821.126	58.06
821.3	19.97
821.473	-4.2
821.647	47.82
821.821	23.24
821.994	22.83
822.168	33.89
822.341	67.07
822.515	12.6
822.688	19.97
822.862	3.58
823.035	-14.85
823.208	-22.63
823.382	56.42
823.555	44.54
823.729	3.58
823.902	56.01
824.075	58.06
824.249	9.73
824.422	-11.57
824.595	-2.15
824.768	37.58
824.942	3.58
825.115	56.42
825.288	-36.56
825.461	81.82
825.634	70.76
825.808	89.6
825.981	37.99
826.154	127.69
826.327	51.51
826.5	76.49
826.673	4.81
826.846	38.4
827.019	-5.43
827.192	-32.87
827.365	10.55
827.538	61.75
827.711	-16.49
827.884	68.71
828.057	78.54
828.23	38.4
828.403	31.85
828.575	4.4
828.748	-43.52
828.921	64.61
829.094	29.39
829.267	49.87
829.439	25.29
829.612	61.75
829.785	-69.73
829.957	-9.93
830.13	-16.49
830.303	-68.5
830.475	11.78
830.648	4.4
830.821	42.9
830.993	-52.94
831.166	45.36
831.338	64.2
831.511	7.68
831.683	-30.82
831.856	-37.79
832.028	7.68
832.201	29.8
832.373	-21.4
832.546	28.16
832.718	22.43
832.891	1.54
833.063	44.54
833.235	37.99
833.408	63.79
833.58	-25.09
833.752	25.7
833.924	9.73
834.097	55.6
834.269	74.44
834.441	-8.29
834.613	27.34
834.785	-37.38
834.958	28.98
835.13	96.15
835.302	15.05
835.474	1.95
835.646	1.54
835.818	24.88
835.99	6.86
836.162	80.59
836.334	37.99
836.506	54.37
836.678	103.52
836.85	26.52
837.022	-12.8
837.194	17.51
837.366	-10.34
837.538	2.76
837.71	56.83
837.882	17.1
838.053	21.2
838.225	-44.75
838.397	83.45
838.569	-5.84
838.74	19.56
838.912	115.81
839.084	19.97
839.256	23.24
839.427	9.73
839.599	25.7
839.771	38.81
839.942	-42.7
840.114	56.01
840.285	36.35
840.457	132.2
840.628	56.83
840.8	52.74
840.971	114.17
841.143	52.74
841.314	24.06
841.486	151.04
841.657	81
841.829	54.78
842	66.66
842.171	78.13
842.343	114.99
842.514	25.29
842.686	58.88
842.857	115.4
843.028	86.73
843.199	31.03
843.371	68.3
843.542	-3.79
843.713	85.5
843.884	-10.34
844.055	-0.51
844.227	15.46
844.398	47.82
844.569	41.27
844.74	84.68
844.911	-12.8
845.082	35.53
845.253	-32.46
845.424	5.63
845.595	12.19
845.766	14.23
845.937	16.28
846.108	-24.68
846.279	28.57
846.45	56.42
846.621	-9.93
846.792	43.72
846.962	59.29
847.133	-7.48
847.304	7.27
847.475	15.46
847.646	55.19
847.816	73.21
847.987	62.98
848.158	33.07
848.329	-16.08
848.499	103.93
848.67	62.57
848.841	65.02
849.011	40.45
849.182	22.02
849.352	9.73
849.523	-13.62
849.693	23.24
849.864	39.63
850.034	3.17
850.205	62.57
850.375	-25.09
850.546	-30.41
850.716	10.55
850.887	21.61
851.057	3.17
851.228	-32.87
851.398	-68.91
851.568	30.21
851.739	5.22
851.909	53.55
852.079	-45.57
852.249	43.72
852.42	56.83
852.59	47.82
852.76	89.19
852.93	118.68
853.1	49.05
853.271	95.33
853.441	80.18
853.611	34.3
853.781	-27.95
853.951	89.6
854.121	-48.84
854.291	42.09
854.461	-1.74
854.631	35.53
854.801	7.68
854.971	42.09
855.141	41.68
855.311	19.15
855.481	76.08
855.651	-85.3
855.821	-39.42
855.991	37.99
856.16	-28.36
856.33	7.68
856.5	127.69
856.67	43.31
856.84	17.1
857.009	24.47
857.179	94.51
857.349	50.28
857.518	-23.04
857.688	40.04
857.858	46.59
858.027	36.76
858.197	50.69
858.367	43.72
858.536	-0.51
858.706	48.23
858.875	8.09
859.045	56.01
859.214	18.74
859.384	27.34
859.553	-45.16
859.723	-5.02
859.892	8.09
860.061	36.76
860.231	23.65
860.4	10.55
860.569	-36.97
860.739	17.51
860.908	-18.12
861.077	-44.34
861.247	28.98
861.416	41.68
861.585	-17.31
861.754	5.22
861.924	66.66
862.093	-47.62
862.262	81
862.431	43.72
862.6	-5.02
862.769	24.06
862.938	-26.73
863.107	82.64
863.276	19.56
863.445	0.31
863.614	-7.48
863.783	21.61
863.952	33.07
864.121	83.86
864.29	-55.4
864.459	-5.84
864.628	62.57
864.797	-11.16
864.966	-44.75
865.135	-28.36
865.303	21.61
865.472	6.04
865.641	27.75
865.81	37.99
865.979	-18.94
866.147	-9.52
866.316	-2.97
866.485	62.16
866.653	63.38
866.822	-35.74
866.991	23.65
867.159	-12.8
867.328	-16.9
867.496	47.41
867.665	-12.8
867.833	69.53
868.002	8.5
868.17	93.28
868.339	-9.52
868.507	-51.3
868.676	87.55
868.844	76.49
869.013	-38.19
869.181	-17.71
869.349	40.04
869.518	-11.98
869.686	3.17
869.854	27.75
870.023	0.31
870.191	-3.79
870.359	8.5
870.527	54.37
870.695	18.33
870.864	71.58
871.032	-31.64
871.2	-2.97
871.368	12.6
871.536	18.74
871.704	-2.56
871.872	-39.42
872.04	63.79
872.209	-30.82
872.377	29.8
872.545	22.43
872.712	-12.8
872.88	-2.56
873.048	2.36
873.216	29.8
873.384	-18.12
873.552	83.05
873.72	-63.59
873.888	39.22
874.056	55.6
874.223	33.07
874.391	-11.98
874.559	64.2
874.727	40.45
874.894	24.88
875.062	5.22
875.23	7.27
875.398	98.2
875.565	8.91
875.733	-11.98
875.9	-39.42
876.068	63.79
876.236	65.43
876.403	55.19
876.571	-27.14
876.738	27.75
876.906	15.05
877.073	-17.71
877.241	26.93
877.408	23.24
877.576	19.97
877.743	32.67
877.91	19.15
878.078	-19.76
878.245	7.27
878.412	-8.7
878.58	37.17
878.747	10.14
878.914	2.36
879.082	39.22
879.249	-38.6
879.416	62.16
879.583	3.58
879.75	10.14
879.918	6.45
880.085	-29.59
880.252	55.19
880.419	19.15
880.586	-19.35
880.753	62.98
880.92	6.86
881.087	5.22
881.254	60.93
881.421	8.5
881.588	-13.62
881.755	-36.15
881.922	9.32
882.089	44.54
882.256	-5.84
882.423	90.01
882.589	-41.06
882.756	45.77
882.923	-12.39
883.09	-37.38
883.257	0.72
883.423	-17.31
883.59	22.43
883.757	10.55
883.924	56.01
884.09	43.31
884.257	4.81
884.424	28.57
884.59	44.54
884.757	-2.97
884.923	41.68
885.09	31.44
885.257	8.5
885.423	-20.58
885.59	-75.88
885.756	11.78
885.923	-3.79
886.089	16.28
886.255	45.77
886.422	-9.52
886.588	-0.51
886.755	49.87
886.921	69.94
887.087	-20.99
887.254	21.61
887.42	37.17
887.586	7.27
887.752	12.19
887.919	51.1
888.085	27.75
888.251	34.3
888.417	16.28
888.583	66.66
888.75	6.04
888.916	45.36
889.082	-23.45
889.248	68.3
889.414	84.68
889.58	-7.48
889.746	-7.48
889.912	-7.48
