Data from FLMT000111__5__14-05-32-198.txt Node

Date: Thu Oct 26 14:05:32 EDT 2023
User: Student
Spectrometer: FLMT00011
Trigger mode: 0
Integration Time (sec): 1.000000E-1
Scans to average: 5
Electric dark correction enabled: true
Nonlinearity correction enabled: false
Boxcar width: 0
XAxis mode: Wavelengths
Number of Pixels in Spectrum: 3648
>>>>>Begin Spectral Data<<<<<
171.25	-203.23
171.475	-203.23
171.699	-203.23
171.923	-170.87
172.147	28.19
172.371	60.96
172.595	28.19
172.819	17.95
173.043	-30.79
173.267	-4.98
173.491	28.19
173.715	38.02
173.939	-4.98
174.163	-6.21
174.387	-38.57
174.611	-59.46
174.835	-28.33
175.059	25.74
175.283	33.93
175.507	0.75
175.73	60.96
175.954	48.67
176.178	-41.85
176.402	-9.9
176.626	40.48
176.85	-30.79
177.073	-48.4
177.297	50.31
177.521	32.7
177.745	55.23
177.969	44.17
178.192	60.14
178.416	21.64
178.64	-19.73
178.863	49.9
179.087	17.95
179.311	68.33
179.534	33.11
179.758	-4.98
179.982	119.12
180.205	43.35
180.429	30.65
180.653	-13.99
180.876	47.44
181.1	17.95
181.323	8.53
181.547	74.48
181.77	39.66
181.994	86.77
182.217	63.01
182.441	66.7
182.664	45.4
182.888	85.54
183.111	75.71
183.335	6.49
183.558	34.34
183.782	61.78
184.005	57.68
184.228	6.89
184.452	67.51
184.675	-23.82
184.899	40.07
185.122	47.85
185.345	16.73
185.569	-35.7
185.792	51.54
186.015	-6.21
186.238	27.37
186.462	72.84
186.685	139.6
186.908	54.41
187.131	49.9
187.355	25.33
187.578	-0.48
187.801	60.14
188.024	40.07
188.247	40.48
188.471	39.66
188.694	60.55
188.917	47.04
189.14	33.11
189.363	117.89
189.586	13.45
189.809	107.65
190.032	59.73
190.255	48.67
190.478	-2.12
190.701	15.91
190.924	50.72
191.147	8.94
191.37	16.32
191.593	131.82
191.816	53.18
192.039	81.85
192.262	101.1
192.485	10.58
192.708	59.32
192.931	72.84
193.154	80.21
193.377	36.8
193.6	51.54
193.822	-9.9
194.045	16.32
194.268	59.73
194.491	93.32
194.714	73.66
194.936	47.44
195.159	-5.8
195.382	67.92
195.605	-0.48
195.827	69.97
196.05	79.8
196.273	31.47
196.495	22.87
196.718	63.01
196.941	30.24
197.163	49.49
197.386	67.11
197.609	-30.79
197.831	19.18
198.054	100.69
198.277	72.43
198.499	37.61
198.722	7.3
198.944	47.44
199.167	18.77
199.389	-13.99
199.612	17.13
199.834	149.02
200.057	54
200.279	42.53
200.502	11.81
200.724	-6.21
200.947	42.12
201.169	22.87
201.391	-0.48
201.614	112.57
201.836	83.9
202.059	121.58
202.281	48.26
202.503	36.39
202.726	-9.08
202.948	40.89
203.17	30.24
203.393	12.63
203.615	30.24
203.837	37.2
204.059	33.52
204.282	33.52
204.504	40.89
204.726	30.24
204.948	-27.92
205.17	68.74
205.393	-0.48
205.615	20
205.837	113.39
206.059	31.47
206.281	81.03
206.503	48.26
206.725	37.2
206.947	-17.27
207.17	20
207.392	13.04
207.614	0.34
207.836	51.54
208.058	5.26
208.28	-20.96
208.502	67.11
208.724	55.23
208.946	101.92
209.168	52.36
209.39	85.54
209.611	135.1
209.833	42.53
210.055	107.25
210.277	80.62
210.499	45.4
210.721	29.01
210.943	37.61
211.165	70.79
211.386	90.45
211.608	24.51
211.83	-15.63
212.052	15.91
212.274	54.41
212.495	101.1
212.717	-29.97
212.939	9.35
213.161	24.51
213.382	38.43
213.604	62.19
213.826	64.65
214.047	101.51
214.269	64.65
214.491	53.59
214.712	129.36
214.934	62.6
215.155	56.87
215.377	79.8
215.599	115.85
215.82	53.59
216.042	21.23
216.263	13.86
216.485	54.82
216.706	99.46
216.928	36.8
217.149	58.5
217.371	63.42
217.592	82.67
217.814	24.51
218.035	30.65
218.257	51.95
218.478	11.81
218.699	82.67
218.921	90.04
219.142	99.05
219.363	11.81
219.585	29.42
219.806	17.54
220.027	38.43
220.249	34.75
220.47	80.21
220.691	74.48
220.913	61.78
221.134	114.21
221.355	63.42
221.576	49.49
221.798	4.03
222.019	29.01
222.24	40.07
222.461	54.82
222.682	105.2
222.903	28.6
223.125	92.91
223.346	41.3
223.567	-20.14
223.788	5.26
224.009	-2.94
224.23	87.99
224.451	78.57
224.672	39.66
224.893	43.76
225.114	1.16
225.335	-14.4
225.556	64.65
225.777	88.4
225.998	57.68
226.219	65.06
226.44	51.54
226.661	83.08
226.882	67.92
227.103	58.5
227.324	6.49
227.544	60.55
227.765	12.22
227.986	6.08
228.207	49.08
228.428	76.53
228.649	97.42
228.869	13.86
229.09	84.31
229.311	111.75
229.532	56.46
229.752	86.77
229.973	54.41
230.194	106.43
230.415	68.33
230.635	78.16
230.856	63.01
231.077	79.8
231.297	72.02
231.518	81.85
231.739	22.46
231.959	110.93
232.18	30.65
232.4	59.73
232.621	22.46
232.841	57.68
233.062	-32.84
233.283	74.89
233.503	89.63
233.724	23.69
233.944	29.01
234.165	-16.04
234.385	28.6
234.605	58.09
234.826	29.42
235.046	53.18
235.267	31.47
235.487	18.77
235.708	81.85
235.928	-23.82
236.148	108.47
236.369	89.22
236.589	2.39
236.809	27.37
237.03	55.23
237.25	52.77
237.47	35.16
237.69	43.35
237.911	67.92
238.131	65.47
238.351	75.3
238.571	71.2
238.792	64.65
239.012	38.43
239.232	-17.27
239.452	65.88
239.672	49.49
239.892	10.58
240.112	58.5
240.333	10.58
240.553	21.23
240.773	75.71
240.993	15.91
241.213	-2.53
241.433	6.49
241.653	17.95
241.873	29.01
242.093	-2.12
242.313	38.84
242.533	65.88
242.753	64.24
242.973	85.95
243.193	44.17
243.413	10.58
243.633	52.36
243.853	19.59
244.072	111.34
244.292	42.12
244.512	-23.42
244.732	115.44
244.952	60.55
245.172	50.31
245.391	108.06
245.611	33.52
245.831	20
246.051	86.77
246.271	83.08
246.49	-16.86
246.71	57.68
246.93	47.85
247.149	32.29
247.369	29.42
247.589	42.53
247.808	97.82
248.028	11.81
248.248	92.09
248.467	21.23
248.687	49.9
248.906	44.17
249.126	53.59
249.346	15.91
249.565	-19.73
249.785	-8.67
250.004	82.67
250.224	-2.53
250.443	35.16
250.663	63.01
250.882	165.41
251.102	-1.3
251.321	97.42
251.541	62.6
251.76	38.43
251.979	52.36
252.199	80.62
252.418	42.12
252.638	12.22
252.857	51.13
253.076	55.23
253.296	59.32
253.515	52.77
253.734	60.14
253.953	63.42
254.173	41.3
254.392	39.25
254.611	62.19
254.83	20.82
255.05	54
255.269	33.11
255.488	35.16
255.707	101.51
255.926	51.95
256.146	58.91
256.365	106.02
256.584	24.92
256.803	-9.08
257.022	85.95
257.241	42.12
257.46	8.94
257.679	0.75
257.898	27.78
258.117	44.58
258.336	118.71
258.555	44.17
258.774	47.44
258.993	83.49
259.212	39.66
259.431	-17.68
259.65	40.89
259.869	91.68
260.088	75.71
260.307	33.11
260.526	40.07
260.745	59.73
260.964	178.51
261.182	71.61
261.401	27.78
261.62	117.08
261.839	69.15
262.058	47.44
262.276	-46.76
262.495	65.47
262.714	70.79
262.933	-8.67
263.151	32.7
263.37	85.13
263.589	109.29
263.807	-0.07
264.026	10.17
264.245	69.97
264.463	23.69
264.682	22.46
264.901	81.03
265.119	35.57
265.338	21.23
265.556	20.82
265.775	32.29
265.994	87.18
266.212	71.2
266.431	15.5
266.649	36.8
266.868	63.83
267.086	36.8
267.305	6.08
267.523	40.48
267.742	96.19
267.96	70.38
268.178	51.13
268.397	73.66
268.615	48.26
268.834	93.73
269.052	-1.71
269.27	85.13
269.489	-39.39
269.707	72.43
269.925	39.66
270.143	110.93
270.362	49.49
270.58	113.8
270.798	25.74
271.017	63.42
271.235	52.77
271.453	87.99
271.671	75.3
271.889	55.64
272.108	67.51
272.326	61.78
272.544	10.17
272.762	85.54
272.98	33.52
273.198	45.4
273.416	24.51
273.634	94.96
273.852	81.85
274.07	124.45
274.289	42.94
274.507	22.46
274.725	24.1
274.943	84.72
275.161	88.4
275.379	31.47
275.596	-36.93
275.814	-6.62
276.032	38.02
276.25	44.99
276.468	80.62
276.686	26.56
276.904	33.52
277.122	31.47
277.34	115.03
277.557	106.43
277.775	7.71
277.993	40.07
278.211	133.05
278.429	92.5
278.646	18.36
278.864	72.84
279.082	23.28
279.3	92.09
279.517	29.01
279.735	70.38
279.953	47.04
280.17	44.17
280.388	39.66
280.606	4.85
280.823	117.08
281.041	124.45
281.259	1.98
281.476	73.66
281.694	64.65
281.911	69.56
282.129	79.39
282.346	9.76
282.564	8.94
282.781	41.3
282.999	10.17
283.216	70.79
283.434	69.15
283.651	93.73
283.869	60.14
284.086	17.13
284.304	81.44
284.521	58.5
284.738	40.89
284.956	51.13
285.173	-7.85
285.391	40.48
285.608	65.47
285.825	34.75
286.043	71.61
286.26	25.33
286.477	18.77
286.694	62.6
286.912	132.64
287.129	96.6
287.346	4.03
287.563	49.49
287.78	1.16
287.998	8.53
288.215	40.07
288.432	58.91
288.649	35.98
288.866	110.11
289.083	91.68
289.3	98.23
289.518	103.15
289.735	40.89
289.952	52.36
290.169	51.13
290.386	52.77
290.603	19.59
290.82	90.04
291.037	0.75
291.254	12.63
291.471	57.27
291.688	2.39
291.905	44.99
292.122	6.89
292.339	1.16
292.555	65.06
292.772	41.3
292.989	65.88
293.206	35.57
293.423	40.48
293.64	82.26
293.857	112.16
294.073	81.85
294.29	169.91
294.507	77.75
294.724	79.39
294.94	20
295.157	9.35
295.374	42.53
295.591	47.85
295.807	62.6
296.024	69.15
296.241	59.73
296.457	67.11
296.674	14.27
296.891	53.59
297.107	33.11
297.324	19.18
297.54	84.31
297.757	-0.89
297.973	65.47
298.19	86.77
298.407	13.86
298.623	38.02
298.84	69.97
299.056	6.49
299.272	49.9
299.489	42.53
299.705	77.75
299.922	38.84
300.138	136.74
300.355	43.35
300.571	92.5
300.787	21.64
301.004	124.04
301.22	85.54
301.436	36.8
301.653	72.43
301.869	51.95
302.085	30.24
302.302	55.23
302.518	73.25
302.734	27.37
302.95	52.36
303.167	85.13
303.383	84.72
303.599	116.67
303.815	83.49
304.031	48.67
304.248	81.44
304.464	58.09
304.68	92.91
304.896	104.79
305.112	76.12
305.328	89.63
305.544	46.22
305.76	17.54
305.976	66.7
306.192	58.5
306.408	57.27
306.624	35.16
306.84	48.26
307.056	17.95
307.272	154.76
307.488	61.78
307.704	62.6
307.92	103.56
308.136	78.57
308.352	156.81
308.568	99.87
308.784	85.13
309	34.34
309.215	74.48
309.431	49.9
309.647	89.63
309.863	91.68
310.079	84.31
310.294	64.24
310.51	48.67
310.726	3.21
310.942	114.62
311.157	46.22
311.373	120.76
311.589	-12.77
311.804	44.99
312.02	62.19
312.236	33.11
312.451	69.97
312.667	108.47
312.883	76.53
313.098	50.72
313.314	99.46
313.529	60.55
313.745	85.54
313.961	155.58
314.176	77.75
314.392	56.87
314.607	56.46
314.823	110.52
315.038	45.81
315.253	54.41
315.469	18.77
315.684	108.47
315.9	-23.01
316.115	53.59
316.331	101.92
316.546	108.47
316.761	10.99
316.977	79.39
317.192	92.91
317.407	106.84
317.623	9.76
317.838	102.74
318.053	-2.53
318.268	65.88
318.484	43.76
318.699	49.49
318.914	72.02
319.129	72.84
319.344	124.45
319.56	153.94
319.775	46.22
319.99	76.53
320.205	73.66
320.42	142.06
320.635	85.54
320.85	92.09
321.066	65.47
321.281	50.31
321.496	108.06
321.711	82.26
321.926	49.08
322.141	28.6
322.356	74.48
322.571	31.88
322.786	49.49
323.001	91.27
323.216	99.87
323.43	90.45
323.645	33.93
323.86	129.77
324.075	49.49
324.29	57.27
324.505	83.08
324.72	6.08
324.935	85.13
325.149	94.14
325.364	95.78
325.579	84.72
325.794	29.01
326.009	76.12
326.223	47.04
326.438	10.99
326.653	83.9
326.867	137.56
327.082	133.05
327.297	46.63
327.511	92.09
327.726	27.37
327.941	69.56
328.155	15.5
328.37	49.9
328.585	66.7
328.799	81.03
329.014	65.88
329.228	40.07
329.443	9.76
329.657	81.03
329.872	45.4
330.086	35.57
330.301	137.96
330.515	74.89
330.73	12.22
330.944	97.42
331.159	80.21
331.373	94.55
331.587	66.7
331.802	60.55
332.016	97.01
332.231	70.79
332.445	134.28
332.659	121.17
332.874	60.14
333.088	130.59
333.302	101.1
333.516	83.49
333.731	93.73
333.945	88.81
334.159	68.74
334.373	92.09
334.588	103.56
334.802	98.64
335.016	118.3
335.23	84.31
335.444	88.81
335.658	93.73
335.872	129.77
336.087	124.04
336.301	162.54
336.515	61.37
336.729	147.39
336.943	54.82
337.157	162.95
337.371	84.72
337.585	58.09
337.799	124.86
338.013	119.12
338.227	9.35
338.441	100.69
338.655	126.09
338.869	149.02
339.083	48.26
339.296	103.15
339.51	70.79
339.724	135.1
339.938	114.21
340.152	81.85
340.366	81.03
340.58	193.67
340.793	96.6
341.007	85.95
341.221	105.2
341.435	186.3
341.648	159.26
341.862	125.27
342.076	110.11
342.29	146.57
342.503	105.2
342.717	151.48
342.931	101.1
343.144	80.62
343.358	65.06
343.571	144.52
343.785	99.05
343.999	204.73
344.212	179.74
344.426	84.31
344.639	149.43
344.853	168.27
345.066	121.99
345.28	94.14
345.493	112.98
345.707	85.13
345.92	125.27
346.134	159.26
346.347	105.2
346.561	105.2
346.774	217.02
346.987	184.66
347.201	137.15
347.414	71.61
347.627	98.64
347.841	140.83
348.054	101.1
348.267	189.16
348.481	162.54
348.694	97.01
348.907	155.58
349.12	158.03
349.334	142.06
349.547	123.63
349.76	141.65
349.973	111.75
350.186	128.13
350.4	162.95
350.613	162.13
350.826	148.61
351.039	190.39
351.252	205.14
351.465	167.46
351.678	107.25
351.891	128.54
352.104	155.17
352.317	204.73
352.53	131.41
352.743	136.74
352.956	180.56
353.169	171.55
353.382	209.64
353.595	167.05
353.808	151.07
354.021	175.24
354.234	258.79
354.447	176.06
354.66	218.65
354.873	219.88
355.086	299.75
355.298	192.03
355.511	159.67
355.724	181.38
355.937	296.07
356.15	223.57
356.362	225.62
356.575	226.44
356.788	235.86
357.001	207.19
357.213	214.97
357.426	222.34
357.639	282.14
357.851	230.12
358.064	262.89
358.277	268.22
358.489	208.82
358.702	254.7
358.914	195.72
359.127	240.36
359.34	287.47
359.552	255.11
359.765	199.81
359.977	291.15
360.19	263.3
360.402	232.99
360.615	289.1
360.827	246.51
361.04	313.68
361.252	243.23
361.465	259.61
361.677	297.71
361.889	303.85
362.102	264.12
362.314	279.68
362.526	332.93
362.739	321.46
362.951	306.31
363.163	271.08
363.376	233.4
363.588	256.75
363.8	288.7
364.012	298.94
364.225	269.03
364.437	323.92
364.649	328.84
364.861	271.9
365.074	309.99
365.286	297.71
365.498	327.2
365.71	300.98
365.922	298.12
366.134	328.43
366.346	320.64
366.558	337.44
366.77	303.44
366.983	374.3
367.195	271.49
367.407	351.36
367.619	384.54
367.831	373.07
368.043	319.01
368.255	415.67
368.467	396.83
368.678	341.53
368.89	266.17
369.102	369.39
369.314	371.43
369.526	372.25
369.738	334.98
369.95	390.68
370.162	341.94
370.373	380.85
370.585	388.64
370.797	369.79
371.009	394.78
371.221	393.14
371.432	387
371.644	469.74
371.856	399.29
372.068	373.07
372.279	387
372.491	407.07
372.703	409.94
372.914	378.4
373.126	398.06
373.338	359.96
373.549	401.74
373.761	411.57
373.972	379.63
374.184	441.88
374.395	424.27
374.607	433.69
374.819	384.13
375.03	404.61
375.242	432.87
375.453	431.64
375.664	439.02
375.876	461.54
376.087	425.91
376.299	500.86
376.51	434.51
376.722	450.48
376.933	461.95
377.144	521.34
377.356	444.75
377.567	464.82
377.778	473.42
377.99	462.77
378.201	478.75
378.412	480.39
378.624	493.08
378.835	450.48
379.046	464.82
379.257	481.61
379.468	509.06
379.68	472.6
379.891	462.77
380.102	512.74
380.313	462.77
380.524	556.16
380.735	538.96
380.946	482.02
381.158	505.37
381.369	493.9
381.58	541.82
381.791	516.02
382.002	503.73
382.213	576.23
382.424	535.27
382.635	587.29
382.846	611.05
383.057	572.13
383.268	506.19
383.479	541.82
383.69	572.54
383.9	609.41
384.111	604.08
384.322	555.75
384.533	572.54
384.744	618.01
384.955	602.85
385.166	611.86
385.376	592.2
385.587	641.77
385.798	582.37
386.009	565.17
386.22	597.94
386.43	659.38
386.641	679.86
386.852	613.5
387.062	654.05
387.273	656.92
387.484	636.85
387.694	622.51
387.905	673.3
388.116	640.13
388.326	662.24
388.537	692.15
388.747	711.81
388.958	729.42
389.168	713.44
389.379	634.8
389.59	615.55
389.8	652.82
390.011	645.86
390.221	684.36
390.431	734.74
390.642	734.74
390.852	726.14
391.063	691.33
391.273	706.89
391.484	674.94
391.694	727.78
391.904	716.72
392.115	731.88
392.325	731.88
392.535	732.29
392.746	741.3
392.956	798.23
393.166	715.08
393.376	785.12
393.587	784.71
393.797	835.5
394.007	773.24
394.217	729.83
394.427	781.44
394.638	747.44
394.848	799.46
395.058	821.58
395.268	731.06
395.478	797
395.688	712.62
395.898	769.97
396.108	771.2
396.318	722.86
396.528	838.78
396.738	781.03
396.948	851.89
397.158	776.52
397.368	812.16
397.578	755.22
397.788	815.84
397.998	716.31
398.208	839.19
398.418	782.26
398.628	833.46
398.838	828.95
399.048	853.53
399.258	873.6
399.467	894.48
399.677	841.24
399.887	792.09
400.097	802.74
400.307	892.85
400.516	873.6
400.726	865.4
400.936	845.74
401.146	879.74
401.355	876.46
401.565	939.13
401.775	808.47
401.984	853.53
402.194	824.03
402.404	986.23
402.613	908.41
402.823	842.47
403.032	913.33
403.242	892.85
403.452	908.82
403.661	979.68
403.871	878.1
404.08	984.6
404.29	984.6
404.499	944.86
404.709	905.95
404.918	970.67
405.128	981.73
405.337	968.62
405.546	962.89
405.756	982.55
405.965	1036.61
406.175	1019
406.384	1014.91
406.593	1012.45
406.803	933.4
407.012	1026.37
407.221	946.09
407.43	1017.77
407.64	1020.64
407.849	1037.84
408.058	1031.29
408.267	1019
408.477	1038.66
408.686	1046.44
408.895	984.6
409.104	1113.62
409.313	1038.66
409.522	1067.33
409.732	1109.93
409.941	1101.33
410.15	1128.36
410.359	1209.05
410.568	1061.6
410.777	1149.66
410.986	1136.55
411.195	1108.7
411.404	1139.01
411.613	1117.3
411.822	1189.39
412.031	1191.03
412.24	1174.65
412.449	1122.22
412.658	1166.86
412.867	1241
413.075	1209.05
413.284	1178.33
413.493	1201.68
413.702	1243.87
413.911	1152.12
414.12	1228.71
414.328	1193.9
414.537	1247.14
414.746	1279.91
414.955	1268.85
415.164	1194.72
415.372	1260.66
415.581	1291.38
415.79	1262.71
415.998	1239.36
416.207	1311.86
416.416	1318.41
416.624	1256.16
416.833	1282.78
417.042	1322.92
417.25	1281.55
417.459	1261.48
417.667	1290.97
417.876	1322.1
418.084	1277.05
418.293	1216.83
418.501	1293.43
418.71	1308.99
418.918	1316.37
419.127	1273.77
419.335	1315.14
419.544	1321.69
419.752	1351.59
419.96	1343.81
420.169	1338.07
420.377	1331.93
420.586	1354.05
420.794	1358.14
421.002	1327.02
421.211	1379.03
421.419	1318.41
421.627	1344.63
421.835	1406.48
422.044	1351.59
422.252	1361.42
422.46	1379.03
422.668	1386
422.877	1424.09
423.085	1485.12
423.293	1431.87
423.501	1431.46
423.709	1428.59
423.917	1406.07
424.125	1412.62
424.333	1417.95
424.542	1456.45
424.75	1446.62
424.958	1458.9
425.166	1457.68
425.374	1528.95
425.582	1499.86
425.79	1448.66
425.998	1424.91
426.206	1490.44
426.414	1515.02
426.621	1476.52
426.829	1467.51
427.037	1483.89
427.245	1511.33
427.453	1474.06
427.661	1523.21
427.869	1608
428.077	1494.95
428.284	1463.82
428.492	1573.18
428.7	1519.52
428.908	1519.52
429.115	1587.93
429.323	1554.34
429.531	1602.26
429.739	1620.69
429.946	1682.13
430.154	1591.61
430.362	1555.57
430.569	1608.82
430.777	1673.12
430.985	1559.66
431.192	1557.21
431.4	1675.17
431.607	1596.53
431.815	1722.27
432.022	1671.89
432.23	1685
432.437	1668.62
432.645	1576.46
432.852	1648.55
433.06	1697.7
433.267	1684.18
433.475	1703.84
433.682	1772.65
433.89	1687.05
434.097	1766.92
434.304	1799.69
434.512	1689.1
434.719	1764.46
434.926	1787.81
435.134	1738.66
435.341	1850.07
435.548	1805.42
435.756	1793.95
435.963	1796
436.17	1839.01
436.377	1848.43
436.585	1762
436.792	1830
436.999	1836.96
437.206	1852.52
437.413	1887.75
437.621	1867.27
437.828	1932.8
438.035	1857.44
438.242	1920.52
438.449	1832.86
438.656	1892.25
438.863	1968.44
439.07	1873
439.277	1945.5
439.484	1919.7
439.691	1962.3
439.898	1975.4
440.105	1942.63
440.312	1888.57
440.519	1906.18
440.726	2044.62
440.933	1902.49
441.14	1945.91
441.347	1981.55
441.553	1987.28
441.76	2019.64
441.967	2023.73
442.174	2014.31
442.381	1997.11
442.587	1997.93
442.794	2047.08
443.001	2079.85
443.208	2011.45
443.414	2113.03
443.621	2079.85
443.828	2085.58
444.035	2068.79
444.241	2072.48
444.448	2121.22
444.654	2109.34
444.861	2058.55
445.068	2111.39
445.274	2099.1
445.481	2145.38
445.687	2176.92
445.894	2104.42
446.101	2182.66
446.307	2179.79
446.514	2150.71
446.72	2196.17
446.926	2166.27
447.133	2185.11
447.339	2153.58
447.546	2247.78
447.752	2165.45
447.959	2084.35
448.165	2178.15
448.371	2229.35
448.578	2173.24
448.784	2191.26
448.99	2235.08
449.197	2170.37
449.403	2260.07
449.609	2233.04
449.816	2321.92
450.022	2216.65
450.228	2296.11
450.434	2362.06
450.64	2318.64
450.847	2325.2
451.053	2254.75
451.259	2276.86
451.465	2265.39
451.671	2357.55
451.877	2445.21
452.083	2340.76
452.289	2351.82
452.496	2351.41
452.702	2296.11
452.908	2320.69
453.114	2394.83
453.32	2333.8
453.526	2315.77
453.732	2315.37
453.938	2430.46
454.144	2374.35
454.349	2442.75
454.555	2470.6
454.761	2514.84
454.967	2378.03
455.173	2420.22
455.379	2502.14
455.585	2524.67
455.791	2483.71
455.996	2502.55
456.202	2504.6
456.408	2484.94
456.614	2595.94
456.819	2521.39
457.025	2489.03
457.231	2579.96
457.437	2434.56
457.642	2535.32
457.848	2551.7
458.054	2585.29
458.259	2604.13
458.465	2613.96
458.671	2613.55
458.876	2639.76
459.082	2659.01
459.287	2555.39
459.493	2592.66
459.698	2621.74
459.904	2712.67
460.109	2727.83
460.315	2707.76
460.52	2615.19
460.726	2714.31
460.931	2732.33
461.137	2731.1
461.342	2751.17
461.548	2726.19
461.753	2728.24
461.958	2698.34
462.164	2828.18
462.369	2797.87
462.574	2813.02
462.78	2846.61
462.985	2787.63
463.19	2841.28
463.396	2904.36
463.601	2858.08
463.806	2849.89
464.011	2868.32
464.216	2846.2
464.422	2838.42
464.627	2943.27
464.832	2911.32
465.037	2949.01
465.242	2933.03
465.447	2905.59
465.653	2942.86
465.858	2923.61
466.063	2976.45
466.268	3034.61
466.473	2981.36
466.678	3186.98
466.883	3072.7
467.088	3224.25
467.293	3196.81
467.498	3166.5
467.703	3198.45
467.908	3248.42
468.113	3198.04
468.317	3299.21
468.522	3396.28
468.727	3352.46
468.932	3342.22
469.137	3396.69
469.342	3386.86
469.547	3335.66
469.751	3436.83
469.956	3476.56
470.161	3465.5
470.366	3558.89
470.57	3594.94
470.775	3582.24
470.98	3609.68
471.185	3606.81
471.389	3663.75
471.594	3721.09
471.799	3668.25
472.003	3777.61
472.208	3918.52
472.412	3850.93
472.617	3830.86
472.822	3868.14
473.026	3889.02
473.231	3961.93
473.435	4004.53
473.64	4045.49
473.844	4031.97
474.049	4068.84
474.253	4127
474.458	4162.63
474.662	4152.8
474.866	4258.07
475.071	4383.81
475.275	4379.72
475.48	4409.62
475.684	4417.4
475.888	4350.23
476.093	4456.31
476.297	4507.1
476.501	4541.51
476.706	4454.67
476.91	4629.16
477.114	4705.34
477.318	4675.44
477.523	4786.03
477.727	4843.79
477.931	4799.14
478.135	4816.75
478.339	4935.13
478.543	4848.29
478.748	4817.98
478.952	5058
479.156	4970.35
479.36	5163.27
479.564	5158.36
479.768	5224.71
479.972	5210.78
480.176	5293.52
480.38	5215.7
480.584	5453.26
480.788	5404.52
480.992	5461.86
481.196	5512.24
481.4	5549.11
481.604	5540.1
481.808	5637.17
482.012	5671.58
482.215	5662.97
482.419	5734.24
482.623	5823.95
482.827	5740.39
483.031	5887.43
483.235	5942.73
483.438	5832.55
483.642	5966.07
483.846	6005.8
484.05	5959.11
484.253	5944.37
484.457	6071.75
484.661	6083.22
484.864	6179.88
485.068	6232.31
485.272	6245.83
485.475	6294.98
485.679	6386.32
485.883	6414.58
486.086	6389.18
486.29	6394.92
486.493	6500.59
486.697	6595.21
486.9	6439.97
487.104	6579.65
487.307	6611.18
487.511	6698.43
487.714	6564.08
487.918	6774.2
488.121	6818.03
488.325	6877.01
488.528	6698.02
488.731	6841.38
488.935	6998.66
489.138	6929.03
489.341	7049.45
489.545	7126.04
489.748	7093.69
489.951	7148.57
490.155	7031.02
490.358	6959.75
490.561	6999.07
490.764	7125.63
490.967	7214.52
491.171	7300.94
491.374	7153.9
491.577	7206.73
491.78	7152.67
491.983	7295.21
492.186	7273.5
492.39	7198.13
492.593	7390.64
492.796	7434.88
492.999	7420.13
493.202	7543.42
493.405	7432.01
493.608	7438.97
493.811	7656.88
494.014	7486.9
494.217	7573.32
494.42	7721.59
494.623	7719.14
494.826	7733.47
495.029	7672.85
495.231	7644.18
495.434	7611.82
495.637	7731.83
495.84	7780.17
496.043	7815.39
496.246	7835.46
496.448	7832.59
496.651	7951.38
496.854	7875.19
497.057	7788.36
497.259	8001.76
497.462	7962.43
497.665	7876.01
497.868	7827.68
498.07	7762.55
498.273	7825.22
498.476	7881.33
498.678	7886.25
498.881	7992.74
499.083	7817.03
499.286	8038.21
499.489	7883.38
499.691	7846.52
499.894	7934.17
500.096	7914.92
500.299	7864.13
500.501	7950.56
500.704	7972.67
500.906	8020.6
501.109	8054.18
501.311	7958.75
501.513	8019.78
501.716	7952.19
501.918	8111.94
502.121	8066.47
502.323	8096.37
502.525	8040.26
502.728	8107.43
502.93	8079.99
503.132	8126.27
503.334	8122.59
503.537	8161.09
503.739	8166
503.941	8175.01
504.143	8284.37
504.346	8175.42
504.548	8150.44
504.75	8289.7
504.952	8104.15
505.154	8166
505.356	8034.52
505.558	8311
505.761	8335.98
505.963	8340.08
506.165	8242.19
506.367	8205.73
506.569	8476.06
506.771	8456.4
506.973	8365.88
507.175	8345.81
507.377	8506.37
507.579	8345.81
507.781	8336.39
507.982	8382.68
508.184	8502.69
508.386	8620.24
508.588	8582.15
508.79	8612.46
508.992	8497.36
509.194	8619.01
509.395	8483.44
509.597	8521.12
509.799	8627.2
510.001	8671.44
510.203	8613.28
510.404	8598.94
510.606	8594.85
510.808	8613.69
511.009	8565.36
511.211	8761.55
511.413	8813.16
511.614	8811.93
511.816	8915.15
512.018	8741.89
512.219	8806.61
512.421	8594.85
512.622	8940.95
512.824	8995.02
513.025	8934.4
513.227	8808.65
513.428	8979.87
513.63	8997.89
513.831	9131.01
514.033	9083.9
514.234	9031.47
514.436	9326.79
514.637	9117.9
514.838	9167.05
515.04	9226.03
515.241	9323.51
515.443	9295.25
515.644	9198.18
515.845	9276
516.046	9402.57
516.248	9405.43
516.449	9407.48
516.65	9382.5
516.851	9440.25
517.053	9533.64
517.254	9490.22
517.455	9643
517.656	9573.37
517.857	9584.02
518.059	9749.49
518.26	9729.01
518.461	9624.57
518.662	9802.33
518.863	9912.92
519.064	10040.3
519.265	9955.93
519.466	9857.21
519.667	9978.45
519.868	10094.37
520.069	9907.19
520.27	10045.63
520.471	10138.2
520.672	10188.99
520.873	10141.06
521.074	9994.43
521.275	10118.13
521.476	10188.99
521.676	10359.79
521.877	10229.54
522.078	10483.48
522.279	10298.35
522.48	10388.05
522.681	10460.14
522.881	10371.26
523.082	10488.4
523.283	10553.93
523.483	10424.5
523.684	10580.15
523.885	10607.59
524.086	10704.66
524.286	10716.54
524.487	10620.7
524.687	10637.9
524.888	10703.85
525.089	10937.72
525.289	10896.35
525.49	10835.73
525.69	10911.1
525.891	11125.73
526.091	10993.43
526.292	10786.99
526.492	10870.96
526.693	10798.46
526.893	10750.54
527.094	10809.52
527.294	10965.58
527.495	10997.11
527.695	11069.2
527.895	11001.62
528.096	11038.48
528.296	11024.15
528.496	11060.6
528.697	11224.03
528.897	11137.6
529.097	11109.34
529.298	11225.67
529.498	11206.42
529.698	11242.87
529.898	11294.89
530.098	11415.72
530.299	11383.36
530.499	11226.49
530.699	11509.11
530.899	11438.25
531.099	11475.11
531.299	11337.9
531.499	11294.89
531.7	11285.88
531.9	11548.84
532.1	11413.67
532.3	11457.91
532.5	11663.93
532.7	11727.42
532.9	11623.38
533.1	11482.89
533.3	11519.76
533.5	11459.96
533.699	11489.04
533.899	11515.25
534.099	11574.23
534.299	11722.91
534.499	11780.26
534.699	11700.8
534.899	11756.5
535.098	11738.07
535.298	11603.72
535.498	11696.7
535.698	11646.32
535.898	11664.34
536.097	11742.17
536.297	11815.48
536.497	11682.36
536.696	11960.89
536.896	11806.47
537.096	11864.22
537.295	12005.94
537.495	11824.08
537.695	12048.95
537.894	11937.54
538.094	11939.18
538.293	12012.91
538.493	12157.9
538.692	12305.36
538.892	12187.39
539.091	12118.58
539.291	12031.34
539.49	12212.79
539.69	12116.94
539.889	11886.34
540.089	11871.6
540.288	11912.56
540.487	11873.64
540.687	12179.2
540.886	12304.95
541.085	12218.93
541.285	12160.77
541.484	12216.47
541.683	12118.17
541.883	12311.91
542.082	12280.78
542.281	12070.25
542.48	12098.92
542.68	12241.05
542.879	12148.48
543.078	12200.09
543.277	12243.51
543.476	12095.24
543.675	12116.12
543.874	12457.32
544.074	12566.27
544.273	12289.38
544.472	12397.92
544.671	12397.11
544.87	12242.28
545.069	12248.83
545.268	12377.85
545.467	12199.68
545.666	12087.45
545.865	12083.77
546.064	12075.57
546.263	12048.95
546.462	12044.04
546.66	12211.15
546.859	12164.87
547.058	12450.35
547.257	12363.52
547.456	12371.71
547.655	12327.88
547.853	12513.84
548.052	12379.08
548.251	12380.31
548.45	12473.7
548.648	12721.5
548.847	12586.34
549.046	12396.29
549.245	12329.93
549.443	12391.78
549.642	12569.14
549.841	12564.63
550.039	12599.04
550.238	12500.73
550.436	12615.01
550.635	12488.45
550.834	12537.19
551.032	12348.77
551.231	12281.6
551.429	12363.93
551.628	12337.71
551.826	12428.23
552.025	12424.14
552.223	12337.31
552.421	12327.07
552.62	12350
552.818	12503.19
553.017	12507.29
553.215	12410.21
553.413	12691.19
553.612	12603.95
553.81	12518.35
554.008	12553.16
554.207	12523.26
554.405	12440.11
554.603	12644.5
554.801	12608.46
555	12544.97
555.198	12669.08
555.396	12413.08
555.594	12462.64
555.792	12429.05
555.991	12486.4
556.189	12753.86
556.387	12524.9
556.585	12524.9
556.783	12666.62
556.981	12474.11
557.179	12516.71
557.377	12478.61
557.575	12636.31
557.773	12701.84
557.971	12576.92
558.169	12741.57
558.367	12726.42
558.565	12630.57
558.763	12605.18
558.961	12714.95
559.159	12689.15
559.357	12745.67
559.554	12874.28
559.752	12713.31
559.95	12687.1
560.148	12718.64
560.346	12877.15
560.544	12748.54
560.741	12728.47
560.939	12853.8
561.137	12872.23
561.334	12710.44
561.532	12657.2
561.73	12873.87
561.928	12857.08
562.125	12814.48
562.323	12999.62
562.52	12704.3
562.718	12667.85
562.916	12738.71
563.113	12653.51
563.311	12747.31
563.508	12868.96
563.706	12875.51
563.903	12780.49
564.101	12937.77
564.298	12924.66
564.496	12757.14
564.693	12761.23
564.891	12938.18
565.088	13212.61
565.285	12943.5
565.483	12916.88
565.68	12727.65
565.878	12778.44
566.075	12629.35
566.272	12866.91
566.469	13030.75
566.667	13091.78
566.864	12957.43
567.061	12762.05
567.259	12879.61
567.456	12938.18
567.653	12892.3
567.85	12798.1
568.047	12812.84
568.244	12803.42
568.442	12630.16
568.639	12993.88
568.836	12843.56
569.033	12999.21
569.23	12995.11
569.427	13067.61
569.624	12900.91
569.821	13070.07
570.018	12978.32
570.215	13090.96
570.412	13107.75
570.609	13072.53
570.806	13305.99
571.003	13130.28
571.2	13108.98
571.397	13053.68
571.594	12960.3
571.791	12993.47
571.987	13031.57
572.184	13018.87
572.381	13284.7
572.578	13391.6
572.775	13265.85
572.971	13300.26
573.168	13351.87
573.365	13219.57
573.562	13136.01
573.758	13299.85
573.955	13208.51
574.152	13278.55
574.348	13506.7
574.545	13422.32
574.742	13469.83
574.938	13484.58
575.135	13187.62
575.331	13219.57
575.528	13258.89
575.725	13248.65
575.921	13181.07
576.118	13251.11
576.314	13334.67
576.511	13393.24
576.707	13426.01
576.903	13377.67
577.1	13339.17
577.296	13378.08
577.493	13602.13
577.689	13641.45
577.885	13358.83
578.082	13487.44
578.278	13783.99
578.474	13786.86
578.671	13608.68
578.867	13425.6
579.063	13335.08
579.26	13458.36
579.456	13627.53
579.652	13554.62
579.848	13763.51
580.044	13662.75
580.241	13506.7
580.437	13762.69
580.633	13709.85
580.829	13649.23
581.025	13641.45
581.221	13575.92
581.417	13590.25
581.613	13779.89
581.809	13857.31
582.005	13840.1
582.201	13817.58
582.397	13787.68
582.593	13759.82
582.789	13599.67
582.985	13604.18
583.181	13698.79
583.377	13799.55
583.573	13803.65
583.769	13833.96
583.965	14080.95
584.161	13978.96
584.357	13936.77
584.552	13860.99
584.748	13938.41
584.944	13999.44
585.14	14198.09
585.335	14112.07
585.531	13993.7
585.727	13724.6
585.923	13850.75
586.118	13882.29
586.314	13881.06
586.51	13865.5
586.705	13781.94
586.901	13876.15
587.097	14099.79
587.292	14031.79
587.488	14022.37
587.683	13870.41
587.879	13957.66
588.074	14089.14
588.27	13820.85
588.465	13767.2
588.661	14055.14
588.856	13988.79
589.052	14016.64
589.247	14128.87
589.443	14118.22
589.638	14265.26
589.833	14050.64
590.029	14184.98
590.224	14044.08
590.419	14082.58
590.615	14278.37
590.81	14162.05
591.005	13995.34
591.201	14101.43
591.396	14163.68
591.591	14234.95
591.786	14139.52
591.981	14055.55
592.177	14018.28
592.372	14209.15
592.567	14183.75
592.762	14150.17
592.957	14100.2
593.152	14173.51
593.347	13945.37
593.543	13926.94
593.738	14301.31
593.933	14438.52
594.128	14360.7
594.323	14092
594.518	14005.58
594.713	13896.63
594.908	14287.38
595.103	14026.88
595.297	14422.96
595.492	14258.71
595.687	14243.14
595.882	14322.2
596.077	14200.14
596.272	14283.28
596.467	14138.7
596.661	14316.05
596.856	14286.97
597.051	14131.74
597.246	14056.37
597.441	14205.05
597.635	14367.66
597.83	14177.2
598.025	14384.86
598.219	14236.59
598.414	14313.19
598.609	14307.45
598.803	14258.3
598.998	14333.67
599.193	14346.77
599.387	14439.75
599.582	14157.54
599.776	14148.94
599.971	14061.29
600.165	14161.23
600.36	14204.23
600.554	14335.71
600.749	14408.62
600.943	14235.36
601.138	14487.67
601.332	14414.76
601.526	14588.02
601.721	14402.89
601.915	14185.8
602.11	14119.04
602.304	14204.23
602.498	14113.71
602.693	14180.89
602.887	14227.99
603.081	14200.14
603.275	14245.6
603.47	14282.47
603.664	14174.74
603.858	14185.8
604.052	14197.68
604.246	14328.34
604.441	14515.52
604.635	14611.37
604.829	14480.71
605.023	14469.24
605.217	14462.69
605.411	14321.38
605.605	14162.45
605.799	14099.38
605.993	14157.54
606.187	14122.31
606.381	13992.88
606.575	14255.02
606.769	14208.74
606.963	14396.74
607.157	14293.12
607.351	14211.61
607.545	13987.56
607.739	14113.3
607.933	14117.81
608.126	13989.2
608.32	14211.61
608.514	14199.32
608.708	14505.69
608.902	14203.82
609.095	14065.38
609.289	14088.73
609.483	14126.41
609.677	14063.33
609.87	14164.91
610.064	14103.47
610.258	14030.98
610.451	13953.15
610.645	14085.04
610.839	14080.95
611.032	14080.54
611.226	14264.44
611.419	14066.61
611.613	14001.07
611.806	14102.65
612	13954.38
612.193	13960.12
612.387	13840.1
612.58	13926.12
612.774	14217.34
612.967	13945.37
613.161	13965.03
613.354	13896.22
613.548	13944.14
613.741	14005.17
613.934	14078.08
614.128	13947.42
614.321	14092.41
614.514	14059.24
614.707	13839.69
614.901	13850.34
615.094	13976.91
615.287	13866.73
615.48	13871.23
615.674	13818.4
615.867	13986.74
616.06	13971.58
616.253	14281.65
616.446	13918.75
616.639	13745.49
616.833	13763.51
617.026	13786.04
617.219	13837.24
617.412	13967.49
617.605	13689.37
617.798	13951.1
617.991	13777.85
618.184	13745.08
618.377	13713.95
618.57	13837.24
618.763	13961.34
618.956	13892.94
619.149	13797.92
619.341	13786.45
619.534	13907.28
619.727	14069.89
619.92	13883.11
620.113	13824.95
620.306	13734.02
620.498	13904.41
620.691	14062.1
620.884	14212.83
621.077	14286.97
621.269	14003.94
621.462	14086.68
621.655	14147.3
621.848	14438.11
622.04	14219.39
622.233	14149.35
622.425	14314.41
622.618	14278.78
622.811	14148.53
623.003	14230.86
623.196	14252.57
623.388	14380.77
623.581	14340.22
623.773	14504.88
623.966	14576.55
624.158	14425
624.351	14336.94
624.543	14473.34
624.736	14374.21
624.928	14416.4
625.121	14197.68
625.313	14207.92
625.505	14238.23
625.698	14415.17
625.89	14258.3
626.082	14325.06
626.275	14355.37
626.467	14359.88
626.659	14322.61
626.851	14480.3
627.044	14550.34
627.236	14710.08
627.428	14499.55
627.62	14526.17
627.812	14384.45
628.004	14368.48
628.197	14483.99
628.389	14354.96
628.581	14483.17
628.773	14827.23
628.965	14803.47
629.157	14621.61
629.349	14540.1
629.541	14412.72
629.733	14375.44
629.925	14518.8
630.117	14637.58
630.309	14397.97
630.501	14435.65
630.693	14357.83
630.885	14271
631.077	14580.24
631.268	14534.37
631.46	14435.65
631.652	14433.61
631.844	14480.3
632.036	14566.31
632.228	14598.67
632.419	14620.38
632.611	14515.12
632.803	14620.79
632.995	14575.73
633.186	14307.45
633.378	14428.28
633.57	14642.5
633.761	14724.01
633.953	14874.33
634.144	14837.06
634.336	14682.64
634.528	14776.85
634.719	14604.82
634.911	14585.97
635.102	14636.35
635.294	14731.79
635.485	14934.13
635.677	14823.13
635.868	14787.09
636.06	14759.23
636.251	14530.27
636.443	14688.37
636.634	14738.75
636.825	14738.34
637.017	14395.51
637.208	14532.73
637.399	14601.54
637.591	14521.67
637.782	14336.12
637.973	14554.85
638.165	14504.06
638.356	14671.99
638.547	14629.39
638.738	14894.4
638.929	15062.74
639.121	14962.39
639.312	14676.9
639.503	14503.65
639.694	14523.31
639.885	14582.29
640.076	14463.1
640.267	14525.35
640.458	14507.33
640.649	14665.44
640.841	14823.95
641.032	14656.83
641.223	14817.8
641.414	14706.4
641.604	14527.4
641.795	14301.31
641.986	14342.27
642.177	14406.16
642.368	14413.13
642.559	14451.22
642.75	14508.56
642.941	14640.86
643.132	14486.44
643.322	14373.81
643.513	14132.96
643.704	14289.43
643.895	14493
644.085	14524.54
644.276	14581.06
644.467	14815.35
644.658	14728.51
644.848	14701.89
645.039	14669.53
645.23	14742.44
645.42	14670.76
645.611	14649.05
645.801	14520.85
645.992	14566.31
646.183	14571.23
646.373	14404.52
646.564	14471.29
646.754	14598.67
646.945	14807.56
647.135	14626.52
647.326	14762.51
647.516	14542.56
647.707	14497.09
647.897	14315.64
648.087	14313.19
648.278	14430.74
648.468	14339.81
648.658	14422.96
648.849	14509.38
649.039	14596.62
649.229	14625.71
649.42	14537.23
649.61	14786.27
649.8	14687.14
649.99	14696.57
650.181	14531.09
650.371	14636.35
650.561	14724.83
650.751	14921.43
650.941	14671.99
651.131	14623.25
651.321	14766.2
651.512	14540.51
651.702	14239.46
651.892	14361.11
652.082	14440.16
652.272	14606.04
652.462	14574.1
652.652	14572.87
652.842	14570.82
653.032	14610.96
653.222	14742.44
653.412	14834.19
653.601	14422.55
653.791	14303.36
653.981	14310.32
654.171	14198.5
654.361	14271.41
654.551	14294.75
654.741	14508.15
654.93	14617.1
655.12	14775.21
655.31	14862.45
655.5	14879.24
655.689	14623.66
655.879	14617.1
656.069	14515.52
656.258	14663.8
656.448	14558.94
656.638	14447.94
656.827	14446.3
657.017	14725.65
657.207	14818.21
657.396	14678.95
657.586	14395.1
657.775	14826.41
657.965	14604.41
658.154	14616.28
658.344	14665.44
658.533	14547.88
658.723	14663.39
658.912	14619.15
659.102	14685.51
659.291	14618.74
659.48	14717.04
659.67	14718.27
659.859	14783.81
660.048	14770.29
660.238	14474.16
660.427	14255.43
660.616	14183.34
660.806	14375.44
660.995	14338.58
661.184	14534.37
661.373	14453.68
661.562	14444.66
661.752	14488.49
661.941	14572.46
662.13	14538.05
662.319	14431.56
662.508	14268.95
662.697	14300.49
662.886	14554.85
663.075	14536.82
663.264	14459.41
663.453	14635.13
663.643	14350.87
663.832	14352.92
664.02	14249.29
664.209	14039.17
664.398	14174.33
664.587	14249.7
664.776	14248.47
664.965	14328.75
665.154	14196.04
665.343	14198.5
665.532	14218.16
665.721	13952.74
665.909	14072.75
666.098	13969.54
666.287	13840.1
666.476	14074.8
666.664	14162.45
666.853	13999.03
667.042	14273.86
667.231	14450.4
667.419	14269.36
667.608	14022.78
667.797	14068.66
667.985	14268.54
668.174	14065.38
668.362	13860.99
668.551	14034.25
668.739	14034.66
668.928	14127.23
669.117	14063.33
669.305	14021.55
669.494	14115.35
669.682	13981.82
669.87	14024.42
670.059	14139.52
670.247	14069.07
670.436	14026.47
670.624	13935.54
670.812	13970.76
671.001	14024.42
671.189	13993.29
671.377	14038.76
671.566	13976.09
671.754	13996.98
671.942	13713.95
672.131	13704.94
672.319	13869.6
672.507	13846.25
672.695	13898.27
672.883	13959.3
673.072	13936.77
673.26	13819.22
673.448	13815.53
673.636	13817.58
673.824	13694.7
674.012	13709.44
674.2	13886.39
674.388	13987.97
674.576	13717.64
674.764	13901.54
674.952	13758.19
675.14	13815.12
675.328	13906.87
675.516	13881.06
675.704	13800.78
675.892	13704.53
676.08	13761.87
676.268	14033.43
676.456	13962.57
676.643	13842.97
676.831	13650.05
677.019	13686.51
677.207	13785.63
677.395	13664.39
677.582	13684.87
677.77	13488.26
677.958	13381.36
678.146	13465.33
678.333	13538.64
678.521	13325.65
678.709	13547.65
678.896	13643.91
679.084	13643.91
679.271	13750.81
679.459	13777.44
679.647	13557.48
679.834	13587.39
680.022	13284.7
680.209	13189.26
680.397	13446.89
680.584	13700.84
680.772	13435.43
680.959	13480.48
681.147	13523.9
681.334	13459.18
681.521	13559.53
681.709	13491.95
681.896	13455.91
682.083	13408.8
682.271	13438.7
682.458	13398.97
682.645	13481.3
682.833	13302.31
683.02	13561.17
683.207	13520.21
683.394	13415.77
683.582	13498.5
683.769	13262.17
683.956	13187.62
684.143	13132.74
684.33	13391.6
684.517	13130.28
684.705	13370.71
684.892	13398.15
685.079	13190.49
685.266	13245.37
685.453	13038.12
685.64	13405.53
685.827	13095.46
686.014	13163.46
686.201	13344.5
686.388	13206.05
686.575	13190.9
686.762	13407.16
686.948	13377.67
687.135	13229.81
687.322	13344.09
687.509	13154.85
687.696	13080.31
687.883	13171.65
688.07	13045.9
688.256	13158.13
688.443	12947.19
688.63	12849.71
688.817	12907.46
689.003	13205.23
689.19	13102.43
689.377	13086.45
689.563	12890.26
689.75	12927.12
689.937	12821.85
690.123	12747.31
690.31	12827.18
690.496	12730.11
690.683	12907.46
690.869	13099.15
691.056	13045.08
691.242	12870.6
691.429	12848.89
691.615	12714.54
691.802	12772.29
691.988	12981.19
692.175	12784.99
692.361	12681.77
692.548	12804.65
692.734	12808.34
692.92	12681.77
693.107	12635.08
693.293	12544.56
693.479	12410.21
693.665	12574.05
693.852	12558.9
694.038	12617.06
694.224	12820.63
694.41	12883.29
694.597	12596.58
694.783	12766.56
694.969	13014.36
695.155	12789.5
695.341	12804.65
695.527	12538.83
695.713	12663.34
695.9	12476.98
696.086	12570.77
696.272	12721.09
696.458	12575.69
696.644	12461.82
696.83	12387.28
697.016	12388.5
697.202	12660.47
697.387	12386.87
697.573	12371.71
697.759	12434.79
697.945	12369.25
698.131	12487.22
698.317	12413.08
698.503	12191.08
698.689	12227.12
698.874	12146.84
699.06	12041.17
699.246	12018.64
699.432	12184.94
699.617	12063.7
699.803	12209.1
699.989	12042.81
700.174	12059.19
700.36	12095.64
700.546	12260.3
700.731	12239.41
700.917	12061.24
701.103	11978.5
701.288	11988.33
701.474	11933.45
701.659	12219.34
701.845	12048.13
702.03	11998.16
702.216	11951.06
702.401	12113.67
702.587	12200.5
702.772	11968.67
702.958	12073.12
703.143	11911.74
703.328	11840.88
703.514	11876.92
703.699	12033.39
703.884	11928.53
704.07	11913.79
704.255	11889.21
704.44	11970.31
704.626	11966.21
704.811	11957.61
704.996	12005.94
705.181	11792.14
705.366	11645.91
705.552	11675.81
705.737	11781.49
705.922	11684.82
706.107	11790.5
706.292	11655.74
706.477	11744.62
706.662	11566.86
706.847	11549.25
707.032	11672.12
707.217	11695.06
707.402	11873.24
707.587	11726.19
707.772	11423.91
707.957	11572.59
708.142	11661.07
708.327	11611.1
708.512	11616.01
708.697	11789.68
708.882	11615.6
709.067	11705.71
709.252	11725.37
709.436	11844.15
709.621	11701.21
709.806	11515.25
709.991	11269.9
710.175	11279.32
710.36	11377.22
710.545	11459.55
710.73	11347.32
710.914	11474.29
711.099	11545.97
711.284	11815.48
711.468	11545.97
711.653	11520.17
711.837	11419.41
712.022	11557.03
712.206	11565.63
712.391	11530.41
712.576	11530.81
712.76	11433.33
712.944	11369.03
713.129	11274.82
713.313	11420.63
713.498	11341.58
713.682	10985.65
713.867	11364.93
714.051	11511.15
714.235	11536.55
714.42	11562.35
714.604	11409.17
714.788	11494.77
714.973	11185.53
715.157	11289.56
715.341	11078.21
715.525	11038.07
715.71	11092.96
715.894	11247.79
716.078	11247.79
716.262	11246.15
716.446	11167.51
716.63	11270.31
716.815	11084.77
716.999	11083.54
717.183	11102.79
717.367	11171.6
717.551	11158.49
717.735	11214.61
717.919	11306.36
718.103	11078.62
718.287	10902.91
718.471	11127.77
718.655	11414.9
718.839	11504.6
719.023	11364.52
719.207	11229.35
719.39	11087.22
719.574	10973.77
719.758	11079.44
719.942	11137.6
720.126	11119.58
720.31	11074.53
720.493	11314.55
720.677	11002.03
720.861	10935.27
721.044	10831.64
721.228	10925.03
721.412	10853.35
721.596	10807.88
721.779	11069.2
721.963	11049.54
722.146	11097.87
722.33	10902.91
722.514	10864.82
722.697	10975.82
722.881	11022.51
723.064	10844.34
723.248	10797.23
723.431	10826.72
723.615	10820.58
723.798	10999.16
723.982	10930.76
724.165	10962.3
724.348	10977.04
724.532	10922.98
724.715	10802.97
724.898	10647.73
725.082	10772.66
725.265	10679.68
725.448	10659.2
725.632	10553.52
725.815	10493.72
725.998	10654.69
726.181	10554.34
726.365	10754.23
726.548	10762.83
726.731	10738.66
726.914	10592.03
727.097	10511.75
727.28	10490.45
727.463	10578.92
727.647	10420
727.83	10414.67
728.013	10587.93
728.196	10711.63
728.379	10951.65
728.562	10909.46
728.745	10669.44
728.928	10518.3
729.111	10231.99
729.294	10254.11
729.476	10230.76
729.659	10465.46
729.842	10595.3
730.025	10462.18
730.208	10622.34
730.391	10628.07
730.574	10484.71
730.756	10719.82
730.939	10515.84
731.122	10575.23
731.305	10538.78
731.487	10366.75
731.67	10257.8
731.853	10331.93
732.035	10410.99
732.218	10445.39
732.401	10634.21
732.583	10640.77
732.766	10542.47
732.948	10355.28
733.131	10268.45
733.313	10304.49
733.496	10314.32
733.678	10239.78
733.861	10432.69
734.043	10422.86
734.226	10311.45
734.408	10370.85
734.591	10275.41
734.773	10211.1
734.956	10073.48
735.138	10177.11
735.32	10247.97
735.503	10038.26
735.685	10164.82
735.867	10271.31
736.049	10289.75
736.232	10343.81
736.414	10092.32
736.596	10097.65
736.778	10093.55
736.961	10096.83
737.143	10096.01
737.325	10069.79
737.507	10078.4
737.689	10048.09
737.871	10045.22
738.053	10105.84
738.235	10015.73
738.417	10187.76
738.599	10257.8
738.781	10227.9
738.963	10188.99
739.145	10247.97
739.327	10095.6
739.509	9897.36
739.691	9914.56
739.873	9671.67
740.055	9919.47
740.237	9792.09
740.419	9731.47
740.601	9623.34
740.782	9542.24
740.964	9435.74
741.146	9608.18
741.328	9638.49
741.509	9728.19
741.691	9801.92
741.873	9791.68
742.055	9586.47
742.236	9525.03
742.418	9541.01
742.6	9576.64
742.781	9592.62
742.963	9456.22
743.144	9475.47
743.326	9556.16
743.508	9528.72
743.689	9378.81
743.871	9271.09
744.052	9390.28
744.234	9536.5
744.415	9305.08
744.596	9320.24
744.778	9220.71
744.959	9246.1
745.141	9140.84
745.322	9239.96
745.503	9202.68
745.685	9151.48
745.866	9137.97
746.047	9185.48
746.229	9241.19
746.41	9118.31
746.591	9006.08
746.772	9024.51
746.954	9026.97
747.135	9207.19
747.316	9053.18
747.497	9004.03
747.678	8902.04
747.859	8867.64
748.041	8972.49
748.222	9061.37
748.403	9142.47
748.584	9125.27
748.765	8998.3
748.946	8844.7
749.127	8831.59
749.308	8830.36
749.489	8858.63
749.67	8753.77
749.851	8745.17
750.032	8539.14
750.212	8579.69
750.393	8494.09
750.574	8382.68
750.755	8432.24
750.936	8515.8
751.117	8665.71
751.297	8631.71
751.478	8662.84
751.659	8693.56
751.84	8726.33
752.02	8704.21
752.201	8538.73
752.382	8385.54
752.562	8261.03
752.743	8449.85
752.924	8478.11
753.104	8358.51
753.285	8320.42
753.466	8546.51
753.646	8381.86
753.827	8473.61
754.007	8554.71
754.188	8621.47
754.368	8657.51
754.549	8715.27
754.729	8608.77
754.909	8705.85
755.09	8746.81
755.27	8553.48
755.451	8461.73
755.631	8358.92
755.811	8326.56
755.992	8312.64
756.172	8523.58
756.352	8680.04
756.533	8735.75
756.713	8775.48
756.893	8786.54
757.073	8680.04
757.253	8598.94
757.434	8624.75
757.614	8565.77
757.794	8728.37
757.974	8765.24
758.154	8787.77
758.334	8630.48
758.514	8572.73
758.694	8716.5
758.875	8803.74
759.055	8943.41
759.235	8936.86
759.415	8797.19
759.594	8795.14
759.774	8733.29
759.954	9047.86
760.134	8902.86
760.314	8927.03
760.494	8863.95
760.674	8898.36
760.854	8863.54
761.034	8882.38
761.213	8976.18
761.393	8927.03
761.573	8945.05
761.753	8893.03
761.932	8917.2
762.112	8878.29
762.292	8822.17
762.472	8808.65
762.651	8836.51
762.831	8976.18
763.01	9045.81
763.19	8998.71
763.37	8875.01
763.549	8956.11
763.729	8877.88
763.908	8884.02
764.088	8954.88
764.267	9051.54
764.447	8996.66
764.626	8969.63
764.806	8893.44
764.985	8921.29
765.165	9033.11
765.344	8929.49
765.523	9038.44
765.703	8991.74
765.882	8977.41
766.061	8874.6
766.241	9007.31
766.42	8909.01
766.599	9115.03
766.779	8978.23
766.958	8832.82
767.137	8804.56
767.316	8941.77
767.495	9059.74
767.675	8968.81
767.854	9060.96
768.033	9049.91
768.212	8925.8
768.391	8682.91
768.57	8788.99
768.749	8779.98
768.928	8600.58
769.107	8600.99
769.286	8582.56
769.465	8688.23
769.644	8642.77
769.823	8800.05
770.002	8886.48
770.181	8824.22
770.36	8827.91
770.539	8738.61
770.718	8711.58
770.896	8630.89
771.075	8725.92
771.254	8673.08
771.433	8663.66
771.612	8538.73
771.79	8706.67
771.969	8735.75
772.148	8755.82
772.326	8541.19
772.505	8648.5
772.684	8640.72
772.862	8614.1
773.041	8517.43
773.22	8422.82
773.398	8375.3
773.577	8334.35
773.755	8488.76
773.934	8471.15
774.112	8358.51
774.291	8472.79
774.469	8537.09
774.648	8474.02
774.826	8383.91
775.005	8388.82
775.183	8314.68
775.362	8272.09
775.54	8333.12
775.718	8387.59
775.897	8355.64
776.075	8186.89
776.253	8167.23
776.432	8215.97
776.61	8299.53
776.788	8294.21
776.966	8068.11
777.144	8016.5
777.323	7984.14
777.501	7997.25
777.679	7925.98
777.857	7972.26
778.035	7884.2
778.213	7823.58
778.391	7740.02
778.57	7669.98
778.748	7798.19
778.926	7801.87
779.104	7703.98
779.282	7709.71
779.46	7728.97
779.638	7635.58
779.815	7737.16
779.993	7676.95
780.171	7645.41
780.349	7739.21
780.527	7626.98
780.705	7474.2
780.883	7594.21
781.061	7674.49
781.238	7463.96
781.416	7489.35
781.594	7432.01
781.772	7326.34
781.949	7378.35
782.127	7488.12
782.305	7313.23
782.482	7296.03
782.66	7260.39
782.838	7053.55
783.015	7146.93
783.193	7032.66
783.37	6958.93
783.548	7162.5
783.726	7191.99
783.903	7124.82
784.081	7049.86
784.258	7041.26
784.436	6959.75
784.613	6905.68
784.79	6966.3
784.968	6882.75
785.145	6637.4
785.323	6752.49
785.5	6885.2
785.677	6854.07
785.855	6711.13
786.032	6749.63
786.209	6666.48
786.386	6711.13
786.564	6635.35
786.741	6693.51
786.918	6685.32
787.095	6591.11
787.273	6457.18
787.45	6359.28
787.627	6454.72
787.804	6370.34
787.981	6479.3
788.158	6449.39
788.335	6262.21
788.512	6366.66
788.689	6357.24
788.866	6267.54
789.043	6399.83
789.22	6363.38
789.397	6276.55
789.574	6250.74
789.751	6223.71
789.928	6193.4
790.105	6133.19
790.282	6066.83
790.459	6139.33
790.635	5942.32
790.812	6002.53
790.989	5984.1
791.166	6100.01
791.343	6101.24
791.519	5994.34
791.696	6031.61
791.873	5809.2
792.049	5863.27
792.226	5798.96
792.403	5752.68
792.579	5687.14
792.756	5665.02
792.933	5586.38
793.109	5645.36
793.286	5614.64
793.462	5736.7
793.639	5705.98
793.815	5605.22
793.992	5551.98
794.168	5526.58
794.345	5451.62
794.521	5427.05
794.698	5509.38
794.874	5524.12
795.05	5507.74
795.227	5382.4
795.403	5417.63
795.579	5468.42
795.756	5380.76
795.932	5264.85
796.108	5209.15
796.285	5190.3
796.461	5183.75
796.637	5016.23
796.813	5116.58
796.989	4942.91
797.166	5056.37
797.342	5036.71
797.518	5020.73
797.694	5035.89
797.87	5107.16
798.046	5030.56
798.222	5039.98
798.398	4854.03
798.574	4897.03
798.75	4700.02
798.926	4664.79
799.102	4628.34
799.278	4693.06
799.454	4771.7
799.63	4802.83
799.806	4809.79
799.982	4818.8
800.157	4801.6
800.333	4846.24
800.509	4720.5
800.685	4764.33
800.861	4688.14
801.036	4605.4
801.212	4540.28
801.388	4593.94
801.564	4504.64
801.739	4581.65
801.915	4397.33
802.091	4320.33
802.266	4426
802.442	4223.66
802.617	4230.22
802.793	4371.94
802.969	4350.64
803.144	4307.63
803.32	4392.82
803.495	4436.65
803.671	4397.74
803.846	4367.43
804.022	4341.22
804.197	4337.12
804.372	4274.45
804.548	4147.89
804.723	4072.93
804.898	4064.33
805.074	4005.35
805.249	3977.91
805.424	4088.5
805.6	3999.61
805.775	4127
805.95	4076.21
806.125	4031.15
806.301	3961.52
806.476	4016.41
806.651	3927.94
806.826	3965.62
807.001	3989.78
807.176	3984.87
807.352	3977.09
807.527	4002.48
807.702	3887.8
807.877	3808.74
808.052	3729.69
808.227	3737.47
808.402	3737.07
808.577	3826.77
808.752	3815.3
808.927	3776.39
809.102	3824.72
809.276	3700.61
809.451	3840.28
809.626	3725.6
809.801	3660.06
809.976	3722.73
810.151	3707.57
810.325	3733.79
810.5	3687.09
810.675	3764.92
810.85	3624.43
811.024	3659.65
811.199	3475.74
811.374	3562.17
811.548	3415.53
811.723	3340.99
811.898	3301.26
812.072	3328.7
812.247	3454.86
812.421	3375.39
812.596	3370.07
812.77	3431.51
812.945	3472.88
813.119	3429.05
813.294	3460.18
813.468	3343.04
813.643	3368.84
813.817	3304.94
813.992	3277.5
814.166	3193.94
814.34	3259.89
814.515	3215.24
814.689	3161.59
814.863	3122.26
815.038	3109.57
815.212	3152.17
815.386	3110.39
815.56	3083.76
815.735	3052.63
815.909	3079.26
816.083	3140.7
816.257	3155.03
816.431	3047.72
816.605	3072.29
816.78	3062.05
816.954	3044.03
817.128	2946.55
817.302	2956.79
817.476	2943.68
817.65	2896.99
817.824	2806.47
817.998	2818.35
818.172	2831.86
818.346	2735.2
818.52	2838.83
818.694	2849.89
818.867	2923.61
819.041	2860.94
819.215	2819.17
819.389	2774.93
819.563	2877.33
819.737	2739.29
819.91	2738.07
820.084	2781.89
820.258	2788.86
820.432	2714.31
820.605	2685.64
820.779	2638.13
820.953	2591.43
821.126	2568.49
821.3	2581.6
821.473	2535.73
821.647	2565.22
821.821	2588.56
821.994	2541.46
822.168	2579.55
822.341	2603.31
822.515	2522.21
822.688	2489.44
822.862	2496.82
823.035	2480.84
823.208	2438.24
823.382	2515.66
823.555	2441.52
823.729	2419.81
823.902	2368.61
824.075	2393.19
824.249	2292.84
824.422	2256.38
824.595	2275.63
824.768	2343.63
824.942	2238.77
825.115	2386.22
825.288	2165.86
825.461	2253.52
825.634	2253.93
825.808	2215.01
825.981	2085.99
826.154	2219.11
826.327	2173.65
826.5	2189.62
826.673	2129
826.846	2063.06
827.019	1989.33
827.192	2069.2
827.365	2029.88
827.538	2091.73
827.711	1986.05
827.884	2094.59
828.057	2097.05
828.23	2051.18
828.403	1999.98
828.575	2035.61
828.748	1910.69
828.921	1977.45
829.094	1858.67
829.267	1952.06
829.439	1965.57
829.612	2026.6
829.785	1898.4
829.957	1927.07
830.13	1909.05
830.303	1894.3
830.475	1924.2
830.648	1866.86
830.821	1873.82
830.993	1766.92
831.166	1825.49
831.338	1732.51
831.511	1747.67
831.683	1763.64
831.856	1770.61
832.028	1832.86
832.201	1777.98
832.373	1721.04
832.546	1728.01
832.718	1704.25
832.891	1707.94
833.063	1750.13
833.235	1710.8
833.408	1700.56
833.58	1640.35
833.752	1646.5
833.924	1669.85
834.097	1668.62
834.269	1646.91
834.441	1553.52
834.613	1612.09
834.785	1560.48
834.958	1604.31
835.13	1589.57
835.302	1564.99
835.474	1530.58
835.646	1477.34
835.818	1466.28
835.99	1428.19
836.162	1484.71
836.334	1453.99
836.506	1499.04
836.678	1507.24
836.85	1431.05
837.022	1375.35
837.194	1434.33
837.366	1392.55
837.538	1341.35
837.71	1360.19
837.882	1361.83
838.053	1383.95
838.225	1342.58
838.397	1381.9
838.569	1286.47
838.74	1290.97
838.912	1433.92
839.084	1269.26
839.256	1344.22
839.427	1295.89
839.599	1320.05
839.771	1323.74
839.942	1231.17
840.114	1233.63
840.285	1184.89
840.457	1292.2
840.628	1198.4
840.8	1211.51
840.971	1222.98
841.143	1130.41
841.314	1133.28
841.486	1247.96
841.657	1166.05
841.829	1111.57
842	1105.43
842.171	1102.15
842.343	1127.13
842.514	1041.94
842.686	1071.02
842.857	1064.06
843.028	1050.95
843.199	998.11
843.371	1052.59
843.542	1037.84
843.713	1101.74
843.884	1007.94
844.055	994.02
844.227	1000.57
844.398	1027.19
844.569	993.2
844.74	977.63
844.911	920.7
845.082	954.69
845.253	921.11
845.424	955.51
845.595	933.4
845.766	926.43
845.937	930.53
846.108	881.38
846.279	890.8
846.45	904.31
846.621	862.54
846.792	914.96
846.962	890.39
847.133	845.33
847.304	831.41
847.475	833.46
847.646	851.48
847.816	859.67
847.987	845.74
848.158	818.71
848.329	793.72
848.499	884.65
848.67	787.17
848.841	797
849.011	744.57
849.182	805.6
849.352	710.99
849.523	647.5
849.693	727.78
849.864	727.78
850.034	690.92
850.205	729.83
850.375	644.63
850.546	646.68
850.716	675.76
850.887	675.76
851.057	640.54
851.228	581.96
851.398	564.76
851.568	634.39
851.739	652
851.909	665.11
852.079	595.89
852.249	630.3
852.42	664.7
852.59	594.66
852.76	646.27
852.93	672.89
853.1	556.16
853.271	628.66
853.441	599.58
853.611	554.93
853.781	535.68
853.951	631.12
854.121	547.56
854.291	590.57
854.461	525.03
854.631	580.74
854.801	468.1
854.971	586.06
855.141	550.84
855.311	482.84
855.481	584.42
855.651	428.78
855.821	495.54
855.991	544.28
856.16	449.26
856.33	470.55
856.5	562.3
856.67	523.39
856.84	437.38
857.009	448.44
857.179	527.9
857.349	500.05
857.518	437.79
857.688	486.12
857.858	459.5
858.027	495.54
858.197	436.97
858.367	431.23
858.536	437.79
858.706	429.6
858.875	387.82
859.045	437.38
859.214	398.06
859.384	389.86
859.553	355.87
859.723	378.4
859.892	394.78
860.061	414.03
860.231	356.28
860.4	392.73
860.569	361.6
860.739	320.23
860.908	315.73
861.077	337.03
861.247	352.18
861.416	376.76
861.585	303.44
861.754	404.2
861.924	384.13
862.093	326.38
862.262	351.77
862.431	353.82
862.6	295.66
862.769	307.54
862.938	287.06
863.107	391.09
863.276	341.12
863.445	319.41
863.614	301.39
863.783	321.87
863.952	321.87
864.121	339.48
864.29	236.68
864.459	239.13
864.628	266.99
864.797	329.25
864.966	255.52
865.135	255.11
865.303	235.86
865.472	298.53
865.641	351.36
865.81	289.1
865.979	204.73
866.147	257.16
866.316	246.92
866.485	288.29
866.653	305.9
866.822	186.3
866.991	256.34
867.159	225.62
867.328	238.72
867.496	268.22
867.665	230.94
867.833	293.61
868.002	221.11
868.17	338.26
868.339	185.48
868.507	223.57
868.676	263.71
868.844	269.03
869.013	165.41
869.181	239.54
869.349	245.28
869.518	178.51
869.686	237.09
869.854	238.32
870.023	175.65
870.191	233.4
870.359	161.72
870.527	217.84
870.695	160.49
870.864	279.27
871.032	181.79
871.2	169.09
871.368	230.53
871.536	192.44
871.704	119.12
871.872	188.34
872.04	266.17
872.209	125.27
872.377	177.7
872.545	203.91
872.712	123.63
872.88	180.56
873.048	146.57
873.216	198.99
873.384	159.67
873.552	243.64
873.72	148.61
873.888	184.66
874.056	170.73
874.223	175.65
874.391	119.53
874.559	182.2
874.727	190.8
874.894	179.74
875.062	156.81
875.23	138.37
875.398	216.2
875.565	166.64
875.733	121.99
875.9	160.08
876.068	193.26
876.236	234.22
876.403	171.14
876.571	158.44
876.738	162.95
876.906	222.75
877.073	116.67
877.241	147.8
877.408	165.82
877.576	157.63
877.743	172.78
877.91	130.18
878.078	106.02
878.245	121.99
878.412	122.4
878.58	142.88
878.747	154.76
878.914	108.88
879.082	109.29
879.249	85.95
879.416	141.65
879.583	133.05
879.75	160.08
879.918	114.62
880.085	140.42
880.252	152.71
880.419	129.36
880.586	93.32
880.753	205.55
880.92	121.58
881.087	92.09
881.254	159.67
881.421	133.87
881.588	51.13
881.755	84.31
881.922	87.58
882.089	146.16
882.256	72.84
882.423	173.6
882.589	97.01
882.756	134.28
882.923	103.97
883.09	22.87
883.257	96.6
883.423	92.09
883.59	120.35
883.757	129.36
883.924	171.14
884.09	167.87
884.257	160.9
884.424	127.32
884.59	114.21
884.757	52.77
884.923	120.35
885.09	124.45
885.257	92.5
885.423	80.21
885.59	56.87
885.756	99.05
885.923	98.23
886.089	117.89
886.255	129.36
886.422	77.75
886.588	58.91
886.755	127.32
886.921	171.14
887.087	54.41
887.254	169.5
887.42	115.44
887.586	85.54
887.752	53.18
887.919	102.74
888.085	74.07
888.251	106.02
888.417	103.15
888.583	99.46
888.75	71.61
888.916	83.08
889.082	72.84
889.248	137.96
889.414	167.05
889.58	67.11
889.746	67.11
889.912	67.11
