Data from FLMT000111__7__14-12-25-191.txt Node

Date: Thu Oct 26 14:12:25 EDT 2023
User: Student
Spectrometer: FLMT00011
Trigger mode: 0
Integration Time (sec): 1.000000E-1
Scans to average: 5
Electric dark correction enabled: true
Nonlinearity correction enabled: false
Boxcar width: 0
XAxis mode: Wavelengths
Number of Pixels in Spectrum: 3648
>>>>>Begin Spectral Data<<<<<
171.25	-186.23
171.475	-186.23
171.699	-186.23
171.923	-228.42
172.147	23.07
172.371	113.18
172.595	14.47
172.819	4.23
173.043	-13.79
173.267	-11.74
173.491	34.95
173.715	9.97
173.939	-43.28
174.163	-15.84
174.387	-51.88
174.611	-23.21
174.835	-17.07
175.059	-7.65
175.283	14.47
175.507	-31.81
175.73	8.33
175.954	5.46
176.178	-59.66
176.402	-34.68
176.626	5.87
176.85	-73.59
177.073	-49.83
177.297	26.35
177.521	-10.51
177.745	-7.65
177.969	18.57
178.192	38.23
178.416	-22.8
178.64	-19.93
178.863	7.51
179.087	-24.03
179.311	35.36
179.534	0.14
179.758	-38.37
179.982	83.28
180.205	25.12
180.429	13.65
180.653	-29.35
180.876	-24.85
181.1	-37.14
181.323	-21.16
181.547	33.72
181.77	40.69
181.994	-0.68
182.217	12.01
182.441	50.52
182.664	8.33
182.888	65.67
183.111	27.17
183.335	-25.26
183.558	5.46
183.782	57.48
184.005	-17.07
184.228	-27.72
184.452	29.22
184.675	-20.34
184.899	5.87
185.122	25.53
185.345	-38.37
185.569	-56.39
185.792	6.28
186.015	-40.41
186.238	-10.1
186.462	45.19
186.685	138.99
186.908	7.1
187.131	9.15
187.355	-26.49
187.578	3
187.801	-3.14
188.024	-4.78
188.247	-1.91
188.471	-32.63
188.694	40.69
188.917	49.7
189.14	-37.55
189.363	55.02
189.586	-3.55
189.809	58.71
190.032	50.11
190.255	-13.38
190.478	-13.38
190.701	-23.62
190.924	51.75
191.147	-17.89
191.37	-2.32
191.593	68.54
191.816	30.04
192.039	32.49
192.262	4.64
192.485	-24.03
192.708	36.59
192.931	18.98
193.154	35.77
193.377	-16.66
193.6	19.8
193.822	-19.11
194.045	-11.74
194.268	8.33
194.491	56.25
194.714	23.07
194.936	15.29
195.159	-10.1
195.382	61.17
195.605	-9.28
195.827	6.69
196.05	57.48
196.273	7.1
196.495	27.99
196.718	55.02
196.941	-27.72
197.163	30.86
197.386	43.96
197.609	-81.37
197.831	-20.34
198.054	127.52
198.277	29.22
198.499	-15.84
198.722	-37.14
198.944	-1.91
199.167	-24.03
199.389	-1.09
199.612	-6.42
199.834	65.67
200.057	63.62
200.279	-40
200.502	-5.19
200.724	-42.46
200.947	19.8
201.169	-15.02
201.391	-46.97
201.614	85.74
201.836	39.46
202.059	40.28
202.281	48.47
202.503	-21.98
202.726	-9.69
202.948	43.96
203.17	-22.39
203.393	-17.89
203.615	7.1
203.837	-49.42
204.059	17.75
204.282	-17.48
204.504	9.15
204.726	-3.14
204.948	-57.62
205.17	30.04
205.393	-26.08
205.615	-53.93
205.837	36.59
206.059	0.55
206.281	59.94
206.503	8.33
206.725	-7.24
206.947	-17.89
207.17	46.01
207.392	-5.19
207.614	-19.93
207.836	-12.15
208.058	2.59
208.28	-11.74
208.502	17.75
208.724	31.68
208.946	48.47
209.168	52.15
209.39	52.56
209.611	43.55
209.833	28.4
210.055	72.23
210.277	5.46
210.499	-14.61
210.721	4.64
210.943	-24.44
211.165	52.97
211.386	55.84
211.608	23.89
211.83	-26.49
212.052	-16.66
212.274	42.73
212.495	38.64
212.717	-64.99
212.939	-34.27
213.161	3
213.382	15.7
213.604	26.35
213.826	43.55
214.047	51.34
214.269	36.18
214.491	18.57
214.712	69.36
214.934	-1.91
215.155	57.48
215.377	54.2
215.599	72.23
215.82	92.7
216.042	11.61
216.263	9.97
216.485	34.95
216.706	92.3
216.928	-33.45
217.149	8.74
217.371	22.25
217.592	27.58
217.814	1.37
218.035	46.83
218.257	16.52
218.478	14.47
218.699	24.71
218.921	50.11
219.142	35.77
219.363	7.51
219.585	31.68
219.806	-0.68
220.027	-12.15
220.249	21.44
220.47	34.54
220.691	19.39
220.913	55.43
221.134	63.62
221.355	8.33
221.576	-8.87
221.798	-50.24
222.019	4.64
222.24	0.14
222.461	26.35
222.682	63.62
222.903	-19.93
223.125	91.07
223.346	32.49
223.567	-56.8
223.788	-56.8
224.009	-37.96
224.23	103.76
224.451	64.03
224.672	19.8
224.893	15.29
225.114	-25.26
225.335	-58.44
225.556	14.06
225.777	60.76
225.998	46.83
226.219	-1.5
226.44	-12.97
226.661	47.24
226.882	59.12
227.103	-11.74
227.324	-35.09
227.544	34.95
227.765	14.88
227.986	-48.61
228.207	26.76
228.428	31.68
228.649	-6.42
228.869	1.37
229.09	46.42
229.311	59.12
229.532	-3.14
229.752	12.01
229.973	-6.83
230.194	56.66
230.415	0.14
230.635	48.06
230.856	19.8
231.077	72.63
231.297	34.95
231.518	27.99
231.739	-35.5
231.959	-3.96
232.18	18.16
232.4	50.11
232.621	-12.97
232.841	-5.6
233.062	-81.37
233.283	16.52
233.503	41.1
233.724	38.23
233.944	-18.3
234.165	-7.65
234.385	-20.34
234.605	30.86
234.826	-24.44
235.046	17.75
235.267	10.79
235.487	-4.37
235.708	26.76
235.928	-67.86
236.148	43.96
236.369	37.41
236.589	-16.66
236.809	0.14
237.03	33.31
237.25	3.41
237.47	46.42
237.69	-21.57
237.911	-20.34
238.131	28.4
238.351	42.32
238.571	13.65
238.792	41.1
239.012	-27.72
239.232	-21.16
239.452	20.21
239.672	32.08
239.892	-56.39
240.112	-2.32
240.333	-20.34
240.553	-8.46
240.773	59.53
240.993	-32.22
241.213	-28.13
241.433	8.33
241.653	-7.24
241.873	3.82
242.093	-12.15
242.313	0.96
242.533	31.68
242.753	38.23
242.973	34.13
243.193	-27.31
243.413	-8.87
243.633	31.27
243.853	-29.35
244.072	41.92
244.292	-8.06
244.512	-27.31
244.732	10.38
244.952	14.06
245.172	16.11
245.391	-4.78
245.611	22.25
245.831	0.14
246.051	30.04
246.271	23.07
246.49	-30.99
246.71	27.58
246.93	-13.38
247.149	34.95
247.369	-12.56
247.589	-0.68
247.808	32.08
248.028	-19.11
248.248	3.41
248.467	5.05
248.687	28.81
248.906	27.58
249.126	-2.73
249.346	-46.56
249.565	-31.81
249.785	-6.83
250.004	29.22
250.224	-28.54
250.443	3.82
250.663	18.16
250.882	111.55
251.102	-29.76
251.321	46.42
251.541	-12.56
251.76	28.81
251.979	12.42
252.199	76.73
252.418	-6.42
252.638	18.98
252.857	13.65
253.076	19.39
253.296	16.93
253.515	13.24
253.734	-3.14
253.953	17.34
254.173	-4.37
254.392	-29.35
254.611	34.95
254.83	4.23
255.05	-14.2
255.269	-5.19
255.488	28.81
255.707	51.34
255.926	17.75
256.146	26.35
256.365	45.19
256.584	-17.07
256.803	-45.74
257.022	20.21
257.241	21.03
257.46	-64.17
257.679	42.32
257.898	8.33
258.117	11.61
258.336	46.01
258.555	13.24
258.774	-34.27
258.993	47.65
259.212	19.39
259.431	-55.57
259.65	-3.96
259.869	46.01
260.088	44.78
260.307	9.56
260.526	-11.74
260.745	43.14
260.964	140.63
261.182	-30.99
261.401	20.62
261.62	85.74
261.839	35.36
262.058	64.03
262.276	-72.77
262.495	55.43
262.714	63.21
262.933	23.07
263.151	-21.98
263.37	-8.46
263.589	65.26
263.807	0.55
264.026	-9.69
264.245	3.82
264.463	-27.31
264.682	7.51
264.901	57.48
265.119	-12.15
265.338	50.11
265.556	20.21
265.775	15.29
265.994	15.7
266.212	23.07
266.431	-5.19
266.649	-33.04
266.868	18.57
267.086	-22.8
267.305	1.77
267.523	40.69
267.742	75.09
267.96	-23.62
268.178	28.81
268.397	31.27
268.615	-31.81
268.834	77.14
269.052	-52.7
269.27	-6.83
269.489	-81.37
269.707	58.3
269.925	9.97
270.143	59.53
270.362	26.35
270.58	90.25
270.798	10.38
271.017	27.17
271.235	39.87
271.453	0.14
271.671	-3.14
271.889	23.07
272.108	-9.69
272.326	16.11
272.544	-7.24
272.762	111.14
272.98	0.14
273.198	-32.63
273.416	-24.03
273.634	24.3
273.852	49.29
274.07	22.25
274.289	5.05
274.507	-12.15
274.725	45.19
274.943	52.15
275.161	23.48
275.379	21.85
275.596	-25.67
275.814	-52.7
276.032	11.61
276.25	19.8
276.468	56.25
276.686	-7.24
276.904	30.86
277.122	12.42
277.34	79.19
277.557	49.29
277.775	-42.46
277.993	-6.01
278.211	79.19
278.429	71.41
278.646	-8.46
278.864	43.55
279.082	23.89
279.3	20.21
279.517	74.27
279.735	9.97
279.953	18.98
280.17	0.96
280.388	14.47
280.606	-64.99
280.823	98.44
281.041	49.29
281.259	-47.79
281.476	35.77
281.694	10.79
281.911	16.52
282.129	6.69
282.346	23.89
282.564	10.38
282.781	-15.84
282.999	-12.97
283.216	15.29
283.434	42.32
283.651	-11.33
283.869	-9.28
284.086	-22.39
284.304	19.8
284.521	21.85
284.738	-3.14
284.956	17.34
285.173	-28.54
285.391	-15.43
285.608	-12.56
285.825	-5.6
286.043	-8.46
286.26	2.59
286.477	-4.37
286.694	22.25
286.912	45.19
287.129	77.55
287.346	-14.61
287.563	-3.96
287.78	-3.55
287.998	16.11
288.215	33.31
288.432	3.82
288.649	3
288.866	66.9
289.083	13.65
289.3	32.49
289.518	74.68
289.735	11.2
289.952	-19.52
290.169	48.06
290.386	3.41
290.603	16.11
290.82	74.68
291.037	-17.07
291.254	17.34
291.471	16.52
291.688	-36.32
291.905	-24.03
292.122	-40.41
292.339	-30.58
292.555	21.03
292.772	9.97
292.989	-7.24
293.206	49.7
293.423	25.94
293.64	31.68
293.857	77.55
294.073	93.93
294.29	132.84
294.507	6.28
294.724	7.51
294.94	-33.45
295.157	-40
295.374	-2.32
295.591	-29.35
295.807	50.52
296.024	43.55
296.241	39.05
296.457	42.73
296.674	-35.09
296.891	-8.06
297.107	-9.28
297.324	-22.39
297.54	19.8
297.757	-19.52
297.973	4.64
298.19	88.61
298.407	0.14
298.623	-24.85
298.84	66.08
299.056	11.61
299.272	22.66
299.489	-13.79
299.705	-18.3
299.922	-11.33
300.138	72.63
300.355	9.56
300.571	64.85
300.787	-28.94
301.004	83.69
301.22	68.13
301.436	36.59
301.653	64.03
301.869	25.53
302.085	14.06
302.302	3.82
302.518	30.45
302.734	3.82
302.95	-58.44
303.167	-4.37
303.383	50.52
303.599	40.28
303.815	71
304.031	42.32
304.248	27.17
304.464	-18.7
304.68	6.69
304.896	45.19
305.112	-16.66
305.328	24.3
305.544	8.74
305.76	-26.08
305.976	29.22
306.192	7.1
306.408	-15.84
306.624	-7.65
306.84	31.27
307.056	-40
307.272	107.04
307.488	44.37
307.704	22.66
307.92	53.38
308.136	56.25
308.352	103.35
308.568	21.03
308.784	13.65
309	39.05
309.215	-16.25
309.431	17.34
309.647	-3.55
309.863	72.23
310.079	-11.33
310.294	25.53
310.51	-49.83
310.726	-55.98
310.942	66.08
311.157	36.18
311.373	69.36
311.589	-62.12
311.804	-18.7
312.02	46.42
312.236	0.55
312.451	23.89
312.667	81.24
312.883	-4.78
313.098	26.35
313.314	22.25
313.529	38.23
313.745	47.65
313.961	27.17
314.176	48.47
314.392	40.69
314.607	-1.09
314.823	89.84
315.038	-35.09
315.253	8.74
315.469	-23.62
315.684	48.47
315.9	-55.16
316.115	32.49
316.331	41.1
316.546	50.52
316.761	-27.31
316.977	64.03
317.192	30.04
317.407	79.6
317.623	-33.45
317.838	52.15
318.053	-4.37
318.268	67.31
318.484	-29.76
318.699	-12.56
318.914	33.72
319.129	21.44
319.344	40.28
319.56	71.41
319.775	25.53
319.99	17.75
320.205	49.29
320.42	60.35
320.635	53.79
320.85	75.5
321.066	26.76
321.281	-11.74
321.496	21.85
321.711	22.66
321.926	25.94
322.141	11.61
322.356	66.9
322.571	-13.38
322.786	18.16
323.001	26.76
323.216	30.86
323.43	12.01
323.645	43.96
323.86	93.52
324.075	13.24
324.29	18.57
324.505	48.88
324.72	-34.27
324.935	7.92
325.149	38.64
325.364	38.23
325.579	-10.92
325.794	6.28
326.009	25.94
326.223	-26.08
326.438	-31.4
326.653	71.82
326.867	46.83
327.082	51.34
327.297	-14.2
327.511	63.62
327.726	5.46
327.941	12.01
328.155	-60.48
328.37	19.39
328.585	22.25
328.799	9.97
329.014	35.77
329.228	4.23
329.443	-24.85
329.657	3.82
329.872	-8.06
330.086	-19.52
330.301	58.71
330.515	24.71
330.73	29.22
330.944	23.89
331.159	5.46
331.373	-1.09
331.587	25.12
331.802	20.21
332.016	21.84
332.231	-3.14
332.445	42.32
332.659	76.73
332.874	46.01
333.088	59.53
333.302	76.32
333.516	11.2
333.731	51.34
333.945	-6.83
334.159	32.9
334.373	2.18
334.588	-33.04
334.802	23.07
335.016	61.99
335.23	56.25
335.444	-16.25
335.658	-24.44
335.872	46.01
336.087	25.94
336.301	76.32
336.515	27.58
336.729	71.82
336.943	13.24
337.157	75.09
337.371	-24.85
337.585	-20.75
337.799	56.25
338.013	7.51
338.227	-35.91
338.441	79.19
338.655	73.04
338.869	25.53
339.083	-37.96
339.296	-35.5
339.51	-1.91
339.724	51.34
339.938	48.88
340.152	-25.67
340.366	-8.06
340.58	90.25
340.793	5.87
341.007	29.22
341.221	8.33
341.435	81.65
341.648	7.92
341.862	34.95
342.076	-10.1
342.29	80.42
342.503	16.11
342.717	34.54
342.931	-7.24
343.144	-27.31
343.358	-7.65
343.571	25.94
343.785	16.11
343.999	118.1
344.212	52.56
344.426	32.49
344.639	43.14
344.853	50.52
345.066	-15.43
345.28	18.98
345.493	19.8
345.707	-12.97
345.92	-55.16
346.134	32.08
346.347	-20.75
346.561	-41.64
346.774	93.93
346.987	56.66
347.201	25.12
347.414	-28.54
347.627	-46.15
347.841	-1.91
348.054	-31.81
348.267	59.94
348.481	28.4
348.694	-8.06
348.907	33.72
349.12	90.66
349.334	-12.97
349.547	-21.16
349.76	28.81
349.973	52.56
350.186	-3.14
350.4	60.35
350.613	46.01
350.826	-1.91
351.039	11.61
351.252	47.65
351.465	42.73
351.678	-12.15
351.891	5.87
352.104	8.33
352.317	22.25
352.53	28.4
352.743	13.65
352.956	35.36
353.169	30.86
353.382	75.09
353.595	-19.11
353.808	-31.4
354.021	43.14
354.234	61.99
354.447	-8.87
354.66	39.87
354.873	7.1
355.086	106.63
355.298	-8.46
355.511	50.11
355.724	-3.96
355.937	98.85
356.15	81.24
356.362	15.29
356.575	-15.84
356.788	71.82
357.001	17.75
357.213	-6.42
357.426	46.83
357.639	46.42
357.851	42.32
358.064	53.79
358.277	49.29
358.489	17.75
358.702	6.28
358.914	3.82
359.127	37
359.34	75.91
359.552	53.79
359.765	-8.46
359.977	93.93
360.19	15.7
360.402	35.77
360.615	55.43
360.827	55.43
361.04	72.23
361.252	7.1
361.465	15.7
361.677	45.6
361.889	41.1
362.102	17.34
362.314	-0.27
362.526	85.33
362.739	55.84
362.951	52.56
363.163	33.31
363.376	7.1
363.588	-0.68
363.8	50.93
364.012	17.75
364.225	-2.73
364.437	61.58
364.649	91.48
364.861	46.01
365.074	9.56
365.286	62.8
365.498	37
365.71	0.96
365.922	25.12
366.134	50.11
366.346	15.7
366.558	34.54
366.77	23.48
366.983	89.02
367.195	-36.32
367.407	75.91
367.619	91.07
367.831	46.01
368.043	27.99
368.255	67.72
368.467	55.84
368.678	32.49
368.89	-53.11
369.102	67.72
369.314	18.57
369.526	64.03
369.738	36.18
369.95	30.04
370.162	42.32
370.373	46.83
370.585	34.13
370.797	66.08
371.009	41.51
371.221	24.71
371.432	9.97
371.644	42.73
371.856	37.82
372.068	61.17
372.279	-12.15
372.491	55.02
372.703	50.93
372.914	26.35
373.126	43.96
373.338	-6.42
373.549	37
373.761	24.71
373.972	5.46
374.184	37.41
374.395	18.16
374.607	39.05
374.819	-25.26
375.03	1.37
375.242	46.42
375.453	22.66
375.664	52.56
375.876	92.7
376.087	10.79
376.299	116.46
376.51	51.34
376.722	14.88
376.933	62.8
377.144	114.41
377.356	-2.32
377.567	72.63
377.778	44.37
377.99	47.24
378.201	102.94
378.412	32.9
378.624	-29.35
378.835	14.06
379.046	13.65
379.257	33.31
379.468	68.95
379.68	7.51
379.891	-36.32
380.102	32.9
380.313	-6.42
380.524	67.31
380.735	32.08
380.946	61.99
381.158	49.29
381.369	9.56
381.58	52.56
381.791	-10.92
382.002	-1.09
382.213	48.06
382.424	18.16
382.635	84.51
382.846	65.26
383.057	47.24
383.268	-10.51
383.479	27.17
383.69	-2.32
383.9	65.67
384.111	82.46
384.322	-20.34
384.533	4.64
384.744	40.69
384.955	94.75
385.166	67.31
385.376	34.95
385.587	93.52
385.798	33.31
386.009	9.97
386.22	36.18
386.43	84.51
386.641	84.1
386.852	23.89
387.062	86.97
387.273	55.84
387.484	45.6
387.694	77.14
387.905	27.58
388.116	82.87
388.326	56.66
388.537	77.55
388.747	42.73
388.958	119.33
389.168	55.84
389.379	34.95
389.59	54.2
389.8	19.8
390.011	5.46
390.221	90.25
390.431	104.17
390.642	41.92
390.852	75.09
391.063	75.5
391.273	63.21
391.484	43.96
391.694	40.69
391.904	36.18
392.115	63.21
392.325	54.61
392.535	26.35
392.746	83.69
392.956	128.34
393.166	22.66
393.376	87.38
393.587	136.12
393.797	140.22
394.007	119.74
394.217	91.07
394.427	66.08
394.638	25.12
394.848	107.04
395.058	117.69
395.268	0.14
395.478	97.62
395.688	24.3
395.898	74.27
396.108	77.55
396.318	43.55
396.528	88.2
396.738	68.95
396.948	166.84
397.158	13.65
397.368	75.09
397.578	9.56
397.788	100.9
397.998	6.69
398.208	86.97
398.418	-39.18
398.628	74.68
398.838	39.05
399.048	98.44
399.258	95.16
399.467	111.55
399.677	52.97
399.887	36.18
400.097	35.36
400.307	99.67
400.516	34.54
400.726	45.19
400.936	77.14
401.146	75.09
401.355	91.89
401.565	109.91
401.775	22.66
401.984	43.55
402.194	28.4
402.404	114
402.613	43.55
402.823	34.54
403.032	68.54
403.242	22.66
403.452	42.73
403.661	75.09
403.871	34.13
404.08	100.08
404.29	116.46
404.499	62.8
404.709	26.76
404.918	94.75
405.128	85.74
405.337	129.98
405.546	50.93
405.756	55.84
405.965	108.68
406.175	108.68
406.384	84.1
406.593	109.5
406.803	-3.96
407.012	104.99
407.221	49.7
407.43	53.38
407.64	72.23
407.849	48.47
408.058	59.53
408.267	31.68
408.477	25.12
408.686	44.78
408.895	71.41
409.104	129.16
409.313	15.7
409.522	57.48
409.732	49.7
409.941	136.53
410.15	116.46
410.359	159.06
410.568	38.23
410.777	115.64
410.986	104.17
411.195	99.67
411.404	126.29
411.613	68.95
411.822	109.5
412.031	121.79
412.24	103.76
412.449	63.21
412.658	110.73
412.867	127.93
413.075	156.6
413.284	120.15
413.493	87.79
413.702	140.63
413.911	86.15
414.12	107.04
414.328	106.22
414.537	91.89
414.746	110.32
414.955	79.6
415.164	90.66
415.372	130.8
415.581	185.68
415.79	94.75
415.998	116.87
416.207	152.92
416.416	185.68
416.624	109.91
416.833	126.29
417.042	147.59
417.25	138.58
417.459	99.26
417.667	105.4
417.876	117.28
418.084	106.22
418.293	102.53
418.501	91.07
418.71	82.06
418.918	108.68
419.127	139.81
419.335	89.02
419.544	106.63
419.752	104.17
419.96	163.56
420.169	97.62
420.377	135.71
420.586	181.59
420.794	140.63
421.002	150.46
421.211	132.84
421.419	112.37
421.627	73.86
421.835	157.83
422.044	122.61
422.252	132.84
422.46	138.17
422.668	142.68
422.877	117.28
423.085	143.08
423.293	134.48
423.501	130.39
423.709	121.38
423.917	95.98
424.125	121.38
424.333	90.25
424.542	163.56
424.75	139.81
424.958	154.96
425.166	139.81
425.374	206.57
425.582	180.77
425.79	114.82
425.998	82.06
426.206	168.07
426.414	191.83
426.621	82.06
426.829	148.82
427.037	87.38
427.245	190.19
427.453	134.89
427.661	142.27
427.869	225.82
428.077	162.75
428.284	136.12
428.492	128.34
428.7	107.86
428.908	110.32
429.115	182.82
429.323	146.77
429.531	132.44
429.739	184.86
429.946	209.85
430.154	141.04
430.362	119.74
430.569	175.85
430.777	227.87
430.985	132.44
431.192	148
431.4	173.8
431.607	159.88
431.815	228.28
432.022	128.34
432.23	155.37
432.437	155.78
432.645	108.68
432.852	127.93
433.06	148
433.267	167.66
433.475	158.24
433.682	253.27
433.89	144.31
434.097	197.97
434.304	178.72
434.512	134.89
434.719	151.69
434.926	159.88
435.134	123.01
435.341	201.25
435.548	204.11
435.756	243.84
435.963	152.1
436.17	189.37
436.377	188.96
436.585	185.27
436.792	117.28
436.999	138.58
437.206	166.02
437.413	183.63
437.621	125.47
437.828	204.52
438.035	164.38
438.242	205.75
438.449	154.96
438.656	209.85
438.863	248.76
439.07	129.57
439.277	239.34
439.484	160.29
439.691	153.32
439.898	248.35
440.105	143.08
440.312	163.15
440.519	102.13
440.726	190.6
440.933	116.87
441.14	223.77
441.347	166.84
441.553	193.46
441.76	225.41
441.967	234.01
442.174	178.31
442.381	155.37
442.587	137.76
442.794	214.35
443.001	144.31
443.208	181.18
443.414	215.58
443.621	184.04
443.828	210.26
444.035	220.09
444.241	153.73
444.448	239.75
444.654	204.52
444.861	243.84
445.068	295.04
445.274	173.39
445.481	213.94
445.687	222.96
445.894	144.72
446.101	244.25
446.307	238.11
446.514	112.77
446.72	222.96
446.926	186.91
447.133	182
447.339	184.04
447.546	203.3
447.752	206.16
447.959	168.07
448.165	182.82
448.371	227.87
448.578	179.54
448.784	221.73
448.99	254.49
449.197	183.22
449.403	236.47
449.609	200.84
449.816	313.48
450.022	214.76
450.228	274.97
450.434	267.6
450.64	238.11
450.847	182.82
451.053	217.63
451.259	233.2
451.465	200.84
451.671	320.44
451.877	294.22
452.083	234.83
452.289	214.76
452.496	173.8
452.702	167.66
452.908	256.54
453.114	276.61
453.32	153.32
453.526	204.11
453.732	203.3
453.938	225.82
454.144	221.32
454.349	259.41
454.555	262.28
454.761	300.78
454.967	196.33
455.173	247.53
455.379	274.56
455.585	304.46
455.791	239.75
455.996	260.23
456.202	245.07
456.408	222.14
456.614	272.11
456.819	210.26
457.025	234.83
457.231	285.62
457.437	195.51
457.642	243.44
457.848	245.89
458.054	254.49
458.259	263.91
458.465	275.38
458.671	269.24
458.876	307.33
459.082	286.03
459.287	191.42
459.493	280.71
459.698	270.88
459.904	274.97
460.109	271.7
460.315	279.48
460.52	257.36
460.726	257.36
460.931	303.24
461.137	260.64
461.342	308.15
461.548	254.9
461.753	292.59
461.958	272.52
462.164	338.46
462.369	228.69
462.574	339.69
462.78	288.9
462.985	274.97
463.19	326.58
463.396	355.25
463.601	286.44
463.806	298.73
464.011	268.83
464.216	232.79
464.422	301.19
464.627	380.65
464.832	281.94
465.037	299.96
465.242	338.46
465.447	293.82
465.653	280.71
465.858	255.31
466.063	342.15
466.268	326.58
466.473	254.08
466.678	428.98
466.883	312.66
467.088	386.38
467.293	330.27
467.498	354.03
467.703	341.33
467.908	331.5
468.113	274.97
468.317	348.7
468.522	424.48
468.727	354.03
468.932	321.67
469.137	365.49
469.342	352.8
469.547	314.7
469.751	344.2
469.956	339.28
470.161	356.48
470.366	375.32
470.57	387.2
470.775	393.76
470.98	426.11
471.185	303.65
471.389	365.08
471.594	367.13
471.799	301.6
472.003	437.58
472.208	413.42
472.412	385.15
472.617	342.56
472.822	389.66
473.026	406.45
473.231	444.14
473.435	344.6
473.64	438.81
473.844	404
474.049	405.63
474.253	402.77
474.458	435.13
474.662	402.77
474.866	414.24
475.071	437.58
475.275	420.38
475.48	456.01
475.684	470.76
475.888	447
476.093	480.59
476.297	468.71
476.501	495.74
476.706	439.22
476.91	494.52
477.114	457.65
477.318	469.94
477.523	469.94
477.727	487.96
477.931	487.96
478.135	481.82
478.339	539.57
478.543	417.1
478.748	480.59
478.952	498.61
479.156	453.15
479.36	542.85
479.564	530.56
479.768	553.09
479.972	485.51
480.176	530.15
480.38	446.59
480.584	557.59
480.788	480.18
480.992	495.74
481.196	502.3
481.4	590.77
481.604	544.08
481.808	573.57
482.012	564.97
482.215	536.29
482.419	597.73
482.623	616.17
482.827	612.48
483.031	603.88
483.235	605.52
483.438	596.91
483.642	571.52
483.846	628.04
484.05	630.5
484.253	572.34
484.457	606.74
484.661	586.67
484.864	609.2
485.068	647.7
485.272	649.34
485.475	634.6
485.679	627.63
485.883	656.72
486.086	618.21
486.29	681.29
486.493	653.03
486.697	691.53
486.9	630.09
487.104	688.25
487.307	613.3
487.511	708.73
487.714	628.04
487.918	678.01
488.121	659.58
488.325	643.2
488.528	641.97
488.731	710.78
488.935	701.77
489.138	725.12
489.341	709.14
489.545	760.75
489.748	739.86
489.951	733.72
490.155	763.62
490.358	752.56
490.561	689.48
490.764	686.62
490.967	723.48
491.171	766.9
491.374	726.76
491.577	771.4
491.78	686.62
491.983	755.02
492.186	704.64
492.39	746.01
492.593	713.24
492.796	776.73
492.999	810.72
493.202	798.84
493.405	733.31
493.608	733.31
493.811	750.1
494.014	754.2
494.217	743.55
494.42	811.54
494.623	835.71
494.826	752.15
495.029	759.93
495.231	728.8
495.434	832.43
495.637	748.87
495.84	801.71
496.043	794.75
496.246	815.64
496.448	811.95
496.651	838.98
496.854	766.08
497.057	791.88
497.259	857.42
497.462	814
497.665	782.46
497.868	720.61
498.07	775.91
498.273	853.73
498.476	857.83
498.678	798.03
498.881	815.64
499.083	737.41
499.286	851.27
499.489	770.58
499.691	829.15
499.894	836.94
500.096	802.94
500.299	750.1
500.501	878.72
500.704	752.15
500.906	791.47
501.109	852.5
501.311	838.17
501.513	860.28
501.716	782.46
501.918	829.15
502.121	865.2
502.323	784.51
502.525	815.23
502.728	926.23
502.93	805.4
503.132	827.93
503.334	821.78
503.537	888.55
503.739	815.64
503.941	761.57
504.143	853.32
504.346	800.48
504.548	876.67
504.75	900.42
504.952	830.38
505.154	857.42
505.356	880.76
505.558	903.29
505.761	963.09
505.963	893.46
506.165	988.9
506.367	906.57
506.569	917.22
506.771	912.71
506.973	861.51
507.175	862.74
507.377	958.59
507.579	928.28
507.781	920.9
507.982	897.15
508.184	927.05
508.386	916.81
508.588	880.35
508.79	863.56
508.992	890.59
509.194	934.83
509.395	929.91
509.597	915.99
509.799	963.09
510.001	930.32
510.203	929.5
510.404	865.2
510.606	943.02
510.808	960.63
511.009	886.91
511.211	945.07
511.413	1052.38
511.614	930.73
511.816	971.28
512.018	956.13
512.219	946.71
512.421	923.77
512.622	958.59
512.824	906.57
513.025	906.16
513.227	952.03
513.428	987.67
513.63	970.87
513.831	985.21
514.033	1010.6
514.234	969.24
514.436	1002
514.637	995.45
514.838	1031.49
515.04	980.7
515.241	1003.23
515.443	1087.2
515.644	952.03
515.845	1018.8
516.046	943.84
516.248	1072.86
516.449	1015.93
516.65	974.15
516.851	963.09
517.053	1049.93
517.254	1020.43
517.455	1042.14
517.656	1045.01
517.857	987.67
518.059	1071.22
518.26	1036.41
518.461	1013.88
518.662	1034.36
518.863	1068.36
519.064	1059.35
519.265	1005.69
519.466	1031.08
519.667	1101.94
519.868	1209.67
520.069	1021.25
520.27	1012.24
520.471	1032.72
520.672	1115.87
520.873	1078.19
521.074	1110.55
521.275	1049.11
521.476	1037.23
521.676	1151.91
521.877	1121.6
522.078	1140.04
522.279	1126.11
522.48	1060.17
522.681	1095.39
522.881	1126.11
523.082	1069.59
523.283	1145.77
523.483	1023.3
523.684	1129.39
523.885	1130.62
524.086	1107.27
524.286	1067.95
524.487	1086.79
524.687	1095.39
524.888	1032.72
525.089	1084.74
525.289	1042.14
525.49	1031.08
525.69	1085.56
525.891	1191.64
526.091	1074.09
526.292	1133.89
526.492	1181.4
526.693	1163.38
526.893	1112.18
527.094	1123.24
527.294	1122.01
527.495	1147
527.695	1190.42
527.895	1163.38
528.096	1221.14
528.296	1136.35
528.496	1130.62
528.697	1116.28
528.897	1157.65
529.097	1187.14
529.298	1226.87
529.498	1150.28
529.698	1177.72
529.898	1135.94
530.098	1162.97
530.299	1240.39
530.499	1210.08
530.699	1185.91
530.899	1163.38
531.099	1220.32
531.299	1181.4
531.499	1178.54
531.7	1237.11
531.9	1277.25
532.1	1239.98
532.3	1266.6
532.5	1310.84
532.7	1234.24
532.9	1203.11
533.1	1173.62
533.3	1173.62
533.5	1211.31
533.699	1267.83
533.899	1253.08
534.099	1184.68
534.299	1235.06
534.499	1219.09
534.699	1183.86
534.899	1162.56
535.098	1267.01
535.298	1182.63
535.498	1327.22
535.698	1213.35
535.898	1221.55
536.097	1196.15
536.297	1204.75
536.497	1213.76
536.696	1182.63
536.896	1181
537.096	1226.87
537.295	1282.16
537.495	1251.04
537.695	1244.07
537.894	1237.52
538.094	1272.74
538.293	1271.11
538.493	1327.22
538.692	1360.4
538.892	1267.42
539.091	1212.94
539.291	1179.77
539.49	1156.01
539.69	1312.47
539.889	1234.24
540.089	1196.97
540.288	1240.39
540.487	1226.87
540.687	1292.81
540.886	1302.64
541.085	1264.14
541.285	1220.32
541.484	1302.24
541.683	1352.62
541.883	1318.21
542.082	1267.83
542.281	1305.92
542.48	1319.03
542.68	1297.32
542.879	1316.57
543.078	1266.19
543.277	1263.32
543.476	1226.46
543.675	1242.84
543.874	1284.21
544.074	1317.39
544.273	1276.43
544.472	1307.97
544.671	1369.41
544.87	1332.54
545.069	1348.11
545.268	1343.19
545.467	1372.28
545.666	1317.39
545.865	1331.32
546.064	1348.11
546.263	1332.95
546.462	1299.78
546.66	1259.64
546.859	1332.55
547.058	1334.18
547.257	1303.05
547.456	1321.49
547.655	1350.98
547.853	1335.82
548.052	1297.73
548.251	1338.69
548.45	1357.94
548.648	1380.88
548.847	1321.9
549.046	1317.39
549.245	1278.89
549.443	1248.99
549.642	1367.77
549.841	1361.63
550.039	1364.08
550.238	1368.18
550.436	1366.54
550.635	1323.53
550.834	1340.33
551.032	1371.87
551.231	1316.57
551.429	1337.46
551.628	1408.73
551.826	1400.95
552.025	1364.08
552.223	1294.86
552.421	1345.65
552.62	1450.51
552.818	1366.13
553.017	1354.25
553.215	1277.25
553.413	1307.56
553.612	1353.43
553.81	1381.7
554.008	1393.57
554.207	1411.19
554.405	1372.28
554.603	1323.12
554.801	1316.16
555	1452.56
555.198	1424.29
555.396	1343.6
555.594	1357.53
555.792	1400.95
555.991	1334.18
556.189	1421.84
556.387	1405.86
556.585	1312.07
556.783	1399.31
556.981	1313.29
557.179	1419.38
557.377	1378.83
557.575	1436.99
557.773	1455.01
557.971	1358.76
558.169	1360.81
558.367	1393.98
558.565	1329.68
558.763	1307.56
558.961	1396.44
559.159	1375.14
559.357	1387.43
559.554	1408.32
559.752	1427.98
559.95	1312.07
560.148	1362.45
560.346	1397.67
560.544	1408.32
560.741	1360.4
560.939	1369.41
561.137	1378.83
561.334	1330.09
561.532	1403.81
561.73	1378.42
561.928	1395.62
562.125	1411.6
562.323	1404.22
562.52	1360.4
562.718	1364.9
562.916	1495.97
563.113	1362.85
563.311	1382.52
563.508	1437.81
563.706	1509.9
563.903	1383.74
564.101	1409.96
564.298	1475.9
564.496	1422.66
564.693	1410.37
564.891	1400.95
565.088	1477.95
565.285	1390.3
565.483	1478.36
565.68	1390.71
565.878	1448.05
566.075	1481.23
566.272	1415.28
566.469	1405.04
566.667	1371.46
566.864	1448.05
567.061	1523.42
567.259	1483.28
567.456	1464.43
567.653	1484.5
567.85	1476.72
568.047	1474.67
568.244	1450.1
568.442	1348.93
568.639	1466.48
568.836	1368.18
569.033	1452.56
569.23	1454.19
569.427	1478.77
569.624	1388.66
569.821	1495.97
570.018	1447.64
570.215	1442.73
570.412	1509.9
570.609	1424.29
570.806	1486.14
571.003	1421.02
571.2	1510.31
571.397	1533.66
571.594	1491.06
571.791	1434.12
571.987	1414.05
572.184	1479.18
572.381	1597.55
572.578	1533.25
572.775	1442.32
572.971	1405.45
573.168	1481.64
573.365	1497.61
573.562	1454.6
573.758	1459.52
573.955	1400.54
574.152	1397.26
574.348	1428.39
574.545	1531.61
574.742	1460.34
574.938	1569.7
575.135	1416.92
575.331	1442.73
575.528	1412.83
575.725	1434.12
575.921	1399.31
576.118	1426.75
576.314	1485.73
576.511	1472.22
576.707	1482.87
576.903	1442.73
577.1	1479.18
577.296	1495.15
577.493	1467.71
577.689	1452.56
577.885	1529.15
578.082	1449.69
578.278	1466.48
578.474	1462.8
578.671	1481.64
578.867	1507.85
579.063	1470.99
579.26	1464.84
579.456	1562.74
579.652	1445.18
579.848	1479.59
580.044	1461.16
580.241	1518.5
580.437	1535.7
580.633	1520.96
580.829	1546.35
581.025	1509.9
581.221	1447.64
581.417	1461.57
581.613	1531.61
581.809	1577.07
582.005	1571.34
582.201	1577.89
582.397	1500.48
582.593	1484.09
582.789	1549.63
582.985	1507.85
583.181	1534.47
583.377	1561.92
583.573	1438.63
583.769	1503.76
583.965	1513.18
584.161	1490.65
584.357	1563.56
584.552	1518.91
584.748	1509.08
584.944	1507.85
585.14	1529.15
585.335	1537.75
585.531	1545.12
585.727	1458.29
585.923	1594.28
586.118	1567.65
586.314	1557.82
586.51	1509.9
586.705	1557.41
586.901	1534.47
587.097	1535.29
587.292	1534.07
587.488	1556.59
587.683	1514.4
587.879	1526.28
588.074	1548.4
588.27	1538.57
588.465	1515.63
588.661	1560.28
588.856	1469.35
589.052	1552.5
589.247	1516.86
589.443	1469.76
589.638	1615.98
589.833	1482.87
590.029	1564.78
590.224	1527.51
590.419	1628.68
590.615	1520.55
590.81	1557
591.005	1479.59
591.201	1542.67
591.396	1547.99
591.591	1497.61
591.786	1565.19
591.981	1541.03
592.177	1491.06
592.372	1548.81
592.567	1539.39
592.762	1521.78
592.957	1514.81
593.152	1536.93
593.347	1520.14
593.543	1551.27
593.738	1581.99
593.933	1573.8
594.128	1639.33
594.323	1526.69
594.518	1530.79
594.713	1568.47
594.908	1580.76
595.103	1607.79
595.297	1594.68
595.492	1595.5
595.687	1461.16
595.882	1532.43
596.077	1524.64
596.272	1504.16
596.467	1544.71
596.661	1636.46
596.856	1681.52
597.051	1567.24
597.246	1604.11
597.441	1561.1
597.635	1664.32
597.83	1478.77
598.025	1596.32
598.219	1498.43
598.414	1556.59
598.609	1618.03
598.803	1561.51
598.998	1581.17
599.193	1510.31
599.387	1552.91
599.582	1552.09
599.776	1575.02
599.971	1603.7
600.165	1543.9
600.36	1599.19
600.554	1544.3
600.749	1598.78
600.943	1574.61
601.138	1594.28
601.332	1585.26
601.526	1541.85
601.721	1528.33
601.915	1571.34
602.11	1536.52
602.304	1628.27
602.498	1565.6
602.693	1535.7
602.887	1550.86
603.081	1582.4
603.275	1629.91
603.47	1587.72
603.664	1604.11
603.858	1573.8
604.052	1641.38
604.246	1674.15
604.441	1576.66
604.635	1545.12
604.829	1612.3
605.023	1661.86
605.217	1735.59
605.411	1479.18
605.605	1592.64
605.799	1598.78
605.993	1575.43
606.187	1570.93
606.381	1604.92
606.575	1600.42
606.769	1609.43
606.963	1588.13
607.157	1627.04
607.351	1538.57
607.545	1545.53
607.739	1579.12
607.933	1568.06
608.126	1571.34
608.32	1662.27
608.514	1591
608.708	1542.67
608.902	1551.68
609.095	1543.49
609.289	1537.34
609.483	1601.65
609.677	1680.29
609.87	1649.98
610.064	1567.65
610.258	1538.57
610.451	1749.1
610.645	1654.08
610.839	1549.22
611.032	1570.11
611.226	1570.52
611.419	1568.06
611.613	1572.16
611.806	1572.57
612	1601.65
612.193	1652.85
612.387	1568.88
612.58	1599.19
612.774	1697.08
612.967	1643.02
613.161	1507.85
613.354	1543.9
613.548	1618.03
613.741	1662.68
613.934	1616.8
614.128	1633.6
614.321	1683.57
614.514	1788.83
614.707	1603.7
614.901	1579.53
615.094	1617.62
615.287	1577.07
615.48	1644.66
615.674	1606.15
615.867	1657.35
616.06	1659.81
616.253	1653.67
616.446	1562.33
616.639	1546.76
616.833	1638.1
617.026	1632.37
617.219	1650.8
617.412	1575.43
617.605	1596.32
617.798	1631.96
617.991	1588.95
618.184	1662.68
618.377	1681.52
618.57	1649.16
618.763	1641.38
618.956	1652.44
619.149	1608.61
619.341	1706.09
619.534	1686.84
619.727	1754.02
619.92	1676.6
620.113	1697.9
620.306	1661.45
620.498	1696.26
620.691	1661.04
620.884	1645.47
621.077	1611.89
621.269	1647.52
621.462	1665.95
621.655	1658.17
621.848	1655.3
622.04	1692.17
622.233	1697.49
622.425	1640.56
622.618	1636.05
622.811	1672.1
623.003	1653.67
623.196	1758.93
623.388	1690.94
623.581	1638.92
623.773	1683.16
623.966	1753.2
624.158	1715.92
624.351	1711.42
624.543	1765.08
624.736	1712.65
624.928	1763.44
625.121	1706.5
625.313	1713.47
625.505	1672.1
625.698	1818.32
625.89	1769.58
626.082	1744.19
626.275	1737.22
626.467	1777.36
626.659	1813.41
626.851	1876.08
627.044	1833.89
627.236	1810.95
627.428	1756.06
627.62	1792.11
627.812	1711.83
628.004	1708.96
628.197	1807.67
628.389	1688.07
628.581	1759.75
628.773	1756.47
628.965	1648.75
629.157	1726.98
629.349	1679.47
629.541	1698.72
629.733	1735.18
629.925	1677.83
630.117	1756.47
630.309	1745.42
630.501	1755.25
630.693	1749.1
630.885	1781.87
631.077	1737.63
631.268	1804.4
631.46	1748.69
631.652	1729.44
631.844	1742.96
632.036	1820.78
632.228	1799.07
632.419	1752.79
632.611	1808.49
632.803	1728.21
632.995	1786.78
633.186	1711.01
633.378	1788.01
633.57	1797.02
633.761	1761.8
633.953	1813.41
634.144	1732.31
634.336	1705.68
634.528	1752.38
634.719	1774.5
634.911	1732.31
635.102	1759.75
635.294	1722.89
635.485	1781.87
635.677	1744.19
635.868	1711.83
636.06	1738.86
636.251	1733.95
636.443	1767.53
636.634	1744.6
636.825	1792.11
637.017	1711.42
637.208	1773.68
637.399	1832.25
637.591	1865.02
637.782	1730.26
637.973	1700.36
638.165	1688.07
638.356	1807.67
638.547	1808.08
638.738	1804.81
638.929	1808.08
639.121	1763.85
639.312	1732.31
639.503	1734.77
639.694	1690.94
639.885	1803.58
640.076	1759.75
640.267	1694.22
640.458	1739.27
640.649	1710.19
640.841	1707.73
641.032	1776.54
641.223	1818.73
641.414	1708.96
641.604	1663.5
641.795	1757.29
641.986	1794.57
642.177	1823.24
642.368	1778.18
642.559	1783.51
642.75	1739.27
642.941	1686.02
643.132	1766.3
643.322	1712.65
643.513	1711.42
643.704	1695.04
643.895	1740.5
644.085	1731.49
644.276	1746.64
644.467	1788.83
644.658	1785.97
644.848	1783.51
645.039	1687.66
645.23	1685.21
645.42	1670.46
645.611	1735.18
645.801	1763.44
645.992	1686.43
646.183	1744.19
646.373	1713.47
646.564	1653.26
646.754	1812.18
646.945	1808.9
647.135	1821.19
647.326	1725.76
647.516	1781.87
647.707	1762.62
647.897	1759.34
648.087	1738.86
648.278	1852.32
648.468	1792.93
648.658	1745.42
648.849	1698.31
649.039	1792.11
649.229	1727.8
649.42	1711.83
649.61	1793.75
649.8	1745.42
649.99	1829.38
650.181	1775.32
650.371	1790.47
650.561	1693.81
650.751	1786.78
650.941	1728.21
651.131	1746.64
651.321	1710.19
651.512	1717.15
651.702	1757.7
651.892	1799.07
652.082	1749.51
652.272	1801.53
652.462	1848.22
652.652	1751.15
652.842	1772.45
653.032	1614.35
653.222	1624.18
653.412	1712.24
653.601	1737.63
653.791	1792.93
653.981	1829.38
654.171	1758.93
654.361	1833.48
654.551	1688.89
654.741	1677.83
654.93	1718.38
655.12	1737.22
655.31	1704.05
655.5	1705.68
655.689	1598.37
655.879	1675.37
656.069	1686.84
656.258	1765.49
656.448	1794.16
656.638	1738.04
656.827	1801.12
657.017	1666.36
657.207	1762.21
657.396	1717.56
657.586	1687.66
657.775	1756.47
657.965	1715.11
658.154	1817.5
658.344	1686.43
658.533	1619.67
658.723	1645.07
658.912	1629.09
659.102	1567.24
659.291	1616.8
659.48	1671.69
659.67	1699.13
659.859	1696.67
660.048	1632.37
660.238	1685.61
660.427	1653.67
660.616	1566.01
660.806	1701.59
660.995	1623.77
661.184	1750.33
661.373	1639.33
661.562	1784.74
661.752	1657.76
661.941	1663.5
662.13	1711.01
662.319	1768.76
662.508	1702.41
662.697	1765.49
662.886	1664.73
663.075	1651.21
663.264	1605.33
663.453	1773.68
663.643	1707.73
663.832	1755.25
664.02	1676.19
664.209	1798.66
664.398	1754.02
664.587	1735.99
664.776	1688.07
664.965	1732.72
665.154	1707.32
665.343	1814.23
665.532	1719.2
665.721	1620.49
665.909	1702.82
666.098	1654.08
666.287	1697.9
666.476	1703.23
666.664	1693.4
666.853	1736.81
667.042	1710.19
667.231	1698.31
667.419	1686.02
667.608	1697.08
667.797	1724.94
667.985	1860.1
668.174	1708.55
668.362	1729.85
668.551	1706.5
668.739	1742.96
668.928	1702.82
669.117	1692.17
669.305	1665.14
669.494	1727.39
669.682	1793.34
669.87	1698.72
670.059	1728.21
670.247	1708.96
670.436	1717.15
670.624	1731.08
670.812	1751.15
671.001	1833.48
671.189	1628.68
671.377	1695.45
671.566	1670.87
671.754	1717.56
671.942	1713.06
672.131	1637.69
672.319	1724.94
672.507	1755.25
672.695	1759.75
672.883	1740.5
673.072	1685.61
673.26	1746.64
673.448	1724.12
673.636	1750.33
673.824	1695.85
674.012	1806.85
674.2	1749.51
674.388	1728.21
674.576	1808.08
674.764	1769.58
674.952	1758.11
675.14	1771.63
675.328	1806.04
675.516	1728.21
675.704	1645.88
675.892	1717.97
676.08	1672.1
676.268	1672.1
676.456	1668.41
676.643	1663.91
676.831	1680.7
677.019	1652.85
677.207	1605.33
677.395	1621.72
677.582	1749.51
677.77	1697.9
677.958	1798.66
678.146	1692.99
678.333	1728.21
678.521	1641.79
678.709	1700.77
678.896	1622.13
679.084	1692.58
679.271	1626.22
679.459	1688.48
679.647	1628.68
679.834	1681.93
680.022	1603.29
680.209	1667.18
680.397	1672.51
680.584	1668.82
680.772	1662.68
680.959	1640.15
681.147	1680.7
681.334	1636.87
681.521	1588.95
681.709	1715.92
681.896	1671.69
682.083	1613.53
682.271	1647.93
682.458	1608.61
682.645	1665.54
682.833	1636.05
683.02	1690.12
683.207	1671.69
683.394	1670.05
683.582	1750.33
683.769	1751.97
683.956	1620.08
684.143	1586.49
684.33	1645.47
684.517	1649.16
684.705	1677.42
684.892	1659.81
685.079	1630.32
685.266	1619.67
685.453	1630.32
685.64	1722.89
685.827	1620.9
686.014	1641.79
686.201	1593.05
686.388	1547.17
686.575	1561.92
686.762	1623.77
686.948	1598.37
687.135	1621.31
687.322	1660.63
687.509	1618.03
687.696	1576.25
687.883	1647.11
688.07	1614.35
688.256	1651.21
688.443	1612.71
688.63	1591.82
688.817	1603.7
689.003	1572.98
689.19	1494.74
689.377	1559.87
689.563	1584.85
689.75	1602.06
689.937	1585.26
690.123	1578.3
690.31	1617.21
690.496	1525.05
690.683	1588.54
690.869	1568.06
691.056	1590.18
691.242	1579.53
691.429	1605.33
691.615	1633.19
691.802	1641.38
691.988	1654.9
692.175	1623.77
692.361	1566.42
692.548	1576.66
692.734	1582.81
692.92	1583.22
693.107	1530.38
693.293	1609.02
693.479	1652.44
693.665	1580.35
693.852	1514.4
694.038	1611.07
694.224	1648.75
694.41	1634.42
694.597	1576.25
694.783	1707.32
694.969	1549.63
695.155	1477.13
695.341	1570.93
695.527	1501.71
695.713	1585.26
695.9	1536.11
696.086	1510.72
696.272	1590.18
696.458	1573.8
696.644	1524.64
696.83	1606.97
697.016	1502.53
697.202	1592.64
697.387	1554.54
697.573	1633.6
697.759	1630.73
697.945	1595.91
698.131	1572.98
698.317	1522.19
698.503	1586.08
698.689	1539.39
698.874	1529.56
699.06	1553.32
699.246	1498.84
699.432	1572.98
699.617	1607.38
699.803	1606.97
699.989	1557.41
700.174	1521.78
700.36	1556.18
700.546	1571.75
700.731	1520.96
700.917	1542.67
701.103	1553.73
701.288	1605.33
701.474	1581.58
701.659	1585.67
701.845	1551.68
702.03	1566.42
702.216	1569.29
702.401	1655.71
702.587	1482.46
702.772	1511.95
702.958	1520.96
703.143	1659.4
703.328	1602.47
703.514	1587.31
703.699	1561.92
703.884	1510.31
704.07	1527.51
704.255	1623.77
704.44	1620.9
704.626	1601.65
704.811	1637.28
704.996	1533.66
705.181	1570.11
705.366	1478.36
705.552	1554.14
705.737	1538.16
705.922	1542.67
706.107	1572.98
706.292	1543.08
706.477	1578.3
706.662	1511.54
706.847	1508.67
707.032	1441.91
707.217	1462.8
707.402	1518.91
707.587	1472.63
707.772	1445.59
707.957	1425.52
708.142	1522.6
708.327	1458.29
708.512	1431.67
708.697	1489.42
708.882	1455.01
709.067	1487.78
709.252	1420.61
709.436	1477.54
709.621	1493.11
709.806	1639.74
709.991	1523.01
710.175	1464.43
710.36	1461.98
710.545	1450.92
710.73	1460.34
710.914	1520.96
711.099	1452.56
711.284	1525.46
711.468	1420.61
711.653	1499.25
711.837	1418.56
712.022	1552.91
712.206	1396.44
712.391	1445.18
712.576	1515.63
712.76	1465.66
712.944	1499.66
713.129	1515.63
713.313	1519.32
713.498	1555.77
713.682	1467.3
713.867	1492.7
714.051	1441.09
714.235	1438.22
714.42	1388.25
714.604	1366.95
714.788	1515.22
714.973	1476.72
715.157	1483.28
715.341	1509.9
715.525	1528.74
715.71	1553.73
715.894	1533.66
716.078	1582.81
716.262	1477.13
716.446	1476.31
716.63	1531.2
716.815	1479.59
716.999	1450.1
717.183	1466.89
717.367	1465.66
717.551	1488.6
717.735	1466.07
717.919	1417.33
718.103	1418.56
718.287	1391.94
718.471	1373.91
718.655	1441.09
718.839	1397.26
719.023	1443.14
719.207	1474.26
719.39	1449.28
719.574	1465.66
719.758	1421.02
719.942	1426.75
720.126	1534.88
720.31	1397.67
720.493	1434.94
720.677	1359.58
720.861	1423.47
721.044	1430.85
721.228	1437.81
721.412	1404.63
721.596	1443.95
721.779	1421.84
721.963	1394.8
722.146	1409.14
722.33	1461.57
722.514	1411.19
722.697	1423.07
722.881	1462.39
723.064	1374.73
723.248	1397.67
723.431	1387.02
723.615	1387.02
723.798	1414.46
723.982	1335.41
724.165	1339.51
724.348	1352.62
724.532	1485.73
724.715	1333.36
724.898	1354.25
725.082	1389.07
725.265	1340.33
725.448	1351.39
725.632	1382.52
725.815	1484.5
725.998	1415.28
726.181	1307.56
726.365	1360.81
726.548	1396.44
726.731	1452.97
726.914	1352.21
727.097	1387.84
727.28	1413.64
727.463	1433.31
727.647	1407.09
727.83	1350.16
728.013	1324.35
728.196	1364.49
728.379	1389.48
728.562	1375.55
728.745	1335.41
728.928	1372.69
729.111	1347.29
729.294	1373.09
729.476	1332.95
729.659	1388.25
729.842	1322.71
730.025	1319.44
730.208	1411.6
730.391	1369.41
730.574	1353.02
730.756	1423.88
730.939	1453.38
731.122	1455.01
731.305	1378.42
731.487	1395.62
731.67	1337.05
731.853	1339.51
732.035	1321.9
732.218	1306.33
732.401	1311.25
732.583	1325.58
732.766	1308.38
732.948	1286.26
733.131	1339.51
733.313	1389.89
733.496	1434.53
733.678	1303.05
733.861	1231.38
734.043	1258.41
734.226	1203.52
734.408	1301.42
734.591	1318.62
734.773	1298.96
734.956	1222.36
735.138	1260.87
735.32	1296.09
735.503	1316.57
735.685	1246.53
735.867	1305.1
736.049	1293.22
736.232	1341.97
736.414	1219.91
736.596	1290.36
736.778	1242.84
736.961	1212.53
737.143	1192.46
737.325	1228.92
737.507	1318.62
737.689	1310.02
737.871	1240.39
738.053	1273.56
738.235	1231.38
738.417	1273.15
738.599	1258.41
738.781	1268.24
738.963	1178.13
739.145	1272.33
739.327	1206.8
739.509	1161.33
739.691	1168.3
739.873	1217.04
740.055	1182.22
740.237	1291.18
740.419	1285.03
740.601	1242.02
740.782	1203.11
740.964	1225.23
741.146	1194.51
741.328	1323.53
741.509	1126.52
741.691	1135.53
741.873	1277.66
742.055	1235.06
742.236	1232.6
742.418	1299.78
742.6	1260.87
742.781	1195.74
742.963	1194.92
743.144	1203.11
743.326	1253.08
743.508	1196.15
743.689	1158.06
743.871	1224
744.052	1144.54
744.234	1244.07
744.415	1112.18
744.596	1185.09
744.778	1187.96
744.959	1185.91
745.141	1132.66
745.322	1243.25
745.503	1132.25
745.685	1203.11
745.866	1117.92
746.047	1188.78
746.229	1171.57
746.41	1182.63
746.591	1173.21
746.772	1221.95
746.954	1160.52
747.135	1211.71
747.316	1099.9
747.497	1219.91
747.678	1167.89
747.859	1144.54
748.041	1141.67
748.222	1120.38
748.403	1184.68
748.584	1147.82
748.765	1110.95
748.946	1139.22
749.127	1153.14
749.308	1193.69
749.489	1106.86
749.67	1169.53
749.851	1174.44
750.032	995.86
750.212	1109.32
750.393	1167.89
750.574	1191.64
750.755	1186.32
750.936	1081.87
751.117	1101.53
751.297	1079.42
751.478	1165.02
751.659	1035.59
751.84	1121.6
752.02	1140.45
752.201	1131.84
752.382	1157.24
752.562	1100.31
752.743	1126.52
752.924	1166.66
753.104	1147
753.285	1087.61
753.466	1213.35
753.646	1122.83
753.827	1173.21
754.007	1113.41
754.188	1201.88
754.368	1145.77
754.549	1173.62
754.729	1088.43
754.909	1104.81
755.09	1126.93
755.27	1118.33
755.451	1118.33
755.631	1077.37
755.811	1128.98
755.992	1090.88
756.172	1106.04
756.352	1124.88
756.533	1140.04
756.713	1056.89
756.893	1162.56
757.073	1175.26
757.253	1204.34
757.434	1170.35
757.614	1124.06
757.794	1178.95
757.974	1120.38
758.154	1147.82
758.334	1260.05
758.514	1153.55
758.694	1246.12
758.875	1208.85
759.055	1235.06
759.235	1123.24
759.415	1120.79
759.594	1099.49
759.774	1138.4
759.954	1257.59
760.134	1153.96
760.314	1164.61
760.494	1142.49
760.674	1207.21
760.854	1158.06
761.034	1241.62
761.213	1262.09
761.393	1128.16
761.573	1127.34
761.753	1176.08
761.932	1212.94
762.112	1212.12
762.292	1133.48
762.472	1164.2
762.651	1183.45
762.831	1197.79
763.01	1154.37
763.19	1175.26
763.37	1183.86
763.549	1208.44
763.729	1212.53
763.908	1208.03
764.088	1226.46
764.267	1199.02
764.447	1207.62
764.626	1186.73
764.806	1207.21
764.985	1221.95
765.165	1211.31
765.344	1220.73
765.523	1291.18
765.703	1147.41
765.882	1215.81
766.061	1101.94
766.241	1198.2
766.42	1151.09
766.599	1205.57
766.779	1138.81
766.958	1183.45
767.137	1203.93
767.316	1227.69
767.495	1339.92
767.675	1235.47
767.854	1203.52
768.033	1294.04
768.212	1224
768.391	1151.91
768.57	1269.06
768.749	1196.56
768.928	1105.22
769.107	1146.59
769.286	1133.89
769.465	1195.33
769.644	1195.74
769.823	1196.56
770.002	1191.64
770.181	1180.18
770.36	1223.59
770.539	1209.26
770.718	1263.32
770.896	1176.49
771.075	1159.7
771.254	1228.92
771.433	1236.7
771.612	1111.77
771.79	1109.32
771.969	1084.33
772.148	1130.21
772.326	1120.38
772.505	1112.59
772.684	1140.45
772.862	1115.46
773.041	1143.72
773.22	1076.55
773.398	1164.61
773.577	1113.82
773.755	1201.07
773.934	1130.62
774.112	1072.04
774.291	1085.15
774.469	1107.68
774.648	1152.73
774.826	1163.38
775.005	1124.88
775.183	1153.96
775.362	1151.91
775.54	1195.33
775.718	1194.92
775.897	1198.2
776.075	1069.18
776.253	1077.37
776.432	1038.87
776.61	1084.74
776.788	1008.15
776.966	1058.12
777.144	1040.91
777.323	1031.08
777.501	1114.23
777.679	1068.77
777.857	1084.74
778.035	1058.12
778.213	1066.72
778.391	1105.63
778.57	983.98
778.748	1102.76
778.926	1109.73
779.104	1051.15
779.282	1042.55
779.46	1011.42
779.638	971.28
779.815	1018.39
779.993	1029.45
780.171	951.21
780.349	1006.92
780.527	1021.25
780.705	1029.86
780.883	1040.5
781.061	1060.17
781.238	918.04
781.416	911.89
781.594	995.04
781.772	843.9
781.949	928.28
782.127	997.09
782.305	986.44
782.482	956.95
782.66	977.02
782.838	922.95
783.015	982.75
783.193	958.59
783.37	936.06
783.548	994.63
783.726	943.02
783.903	900.01
784.081	899.6
784.258	940.97
784.436	912.3
784.613	880.35
784.79	935.24
784.968	1020.02
785.145	898.79
785.323	918.86
785.5	925
785.677	858.65
785.855	841.03
786.032	984.8
786.209	896.74
786.386	864.79
786.564	889.77
786.741	828.34
786.918	875.85
787.095	843.08
787.273	872.98
787.45	795.57
787.627	884.45
787.804	828.74
787.981	868.88
788.158	860.28
788.335	763.21
788.512	825.06
788.689	882.81
788.866	841.44
789.043	882.4
789.22	918.04
789.397	882.81
789.574	832.02
789.751	902.47
789.928	818.91
790.105	897.15
790.282	897.56
790.459	820.55
790.635	856.19
790.812	808.67
790.989	890.18
791.166	854.55
791.343	837.76
791.519	830.79
791.696	846.77
791.873	698.08
792.049	748.05
792.226	772.22
792.403	844.72
792.579	824.24
792.756	831.61
792.933	746.83
793.109	759.93
793.286	793.93
793.462	755.43
793.639	820.55
793.815	747.65
793.992	754.61
794.168	746.01
794.345	709.96
794.521	800.07
794.698	721.02
794.874	727.98
795.05	766.49
795.227	787.38
795.403	789.01
795.579	805.4
795.756	765.26
795.932	722.25
796.108	736.18
796.285	744.37
796.461	749.28
796.637	697.27
796.813	697.27
796.989	649.75
797.166	700.13
797.342	617.8
797.518	646.07
797.694	714.47
797.87	733.72
798.046	623.95
798.222	783.69
798.398	606.34
798.574	685.8
798.75	627.22
798.926	609.2
799.102	594.46
799.278	625.18
799.454	686.62
799.63	626.41
799.806	670.23
799.982	653.85
800.157	621.08
800.333	696.04
800.509	631.73
800.685	603.06
800.861	660.4
801.036	628.45
801.212	593.64
801.388	652.21
801.564	588.31
801.739	652.21
801.915	599.37
802.091	603.06
802.266	661.22
802.442	580.12
802.617	612.48
802.793	698.08
802.969	635.01
803.144	529.33
803.32	554.73
803.495	640.33
803.671	604.29
803.846	580.53
804.022	570.29
804.197	603.06
804.372	617.39
804.548	523.19
804.723	578.48
804.898	564.15
805.074	551.45
805.249	569.06
805.424	634.6
805.6	545.72
805.775	644.84
805.95	618.21
806.125	583.81
806.301	523.6
806.476	538.34
806.651	569.06
806.826	545.31
807.001	569.47
807.176	577.25
807.352	536.7
807.527	596.51
807.702	563.74
807.877	524.42
808.052	450.69
808.227	510.9
808.402	519.5
808.577	564.97
808.752	495.34
808.927	505.58
809.102	534.25
809.276	487.96
809.451	522.37
809.626	517.04
809.801	434.72
809.976	503.94
810.151	451.1
810.325	459.7
810.5	420.79
810.675	529.33
810.85	477.31
811.024	484.69
811.199	436.76
811.374	505.98
811.548	434.31
811.723	461.75
811.898	422.43
812.072	481.82
812.247	492.06
812.421	462.98
812.596	432.26
812.77	494.52
812.945	493.29
813.119	501.07
813.294	472.81
813.468	436.35
813.643	483.87
813.817	468.71
813.992	435.13
814.166	363.04
814.34	361.4
814.515	414.65
814.689	353.21
814.863	372.46
815.038	360.99
815.212	373.28
815.386	403.18
815.56	404.82
815.735	384.75
815.909	406.04
816.083	414.24
816.257	511.31
816.431	383.52
816.605	428.98
816.78	355.25
816.954	403.59
817.128	374.51
817.302	453.15
817.476	410.96
817.65	409.32
817.824	423.66
817.998	378.6
818.172	397.85
818.346	320.85
818.52	403.59
818.694	345.01
818.867	462.16
819.041	424.48
819.215	326.99
819.389	367.95
819.563	409.32
819.737	296.68
819.91	316.34
820.084	342.56
820.258	355.66
820.432	360.17
820.605	354.03
820.779	312.25
820.953	324.53
821.126	415.46
821.3	405.22
821.473	305.69
821.647	384.75
821.821	378.6
821.994	388.02
822.168	339.28
822.341	354.84
822.515	333.55
822.688	320.44
822.862	313.07
823.035	321.67
823.208	318.39
823.382	373.69
823.555	338.05
823.729	356.89
823.902	314.7
824.075	338.87
824.249	332.73
824.422	337.23
824.595	312.66
824.768	375.32
824.942	273.34
825.115	404.82
825.288	252.04
825.461	258.18
825.634	273.75
825.808	287.67
825.981	267.19
826.154	347.88
826.327	312.25
826.5	302.83
826.673	221.73
826.846	269.65
827.019	236.06
827.192	252.04
827.365	290.54
827.538	355.25
827.711	231.56
827.884	266.78
828.057	365.49
828.23	317.98
828.403	275.79
828.575	256.13
828.748	206.98
828.921	279.48
829.094	253.27
829.267	274.56
829.439	270.06
829.612	277.84
829.785	183.22
829.957	236.06
830.13	238.93
830.303	164.79
830.475	223.37
830.648	241.39
830.821	272.93
830.993	223.37
831.166	277.02
831.338	270.47
831.511	250.4
831.683	220.91
831.856	249.17
832.028	262.28
832.201	288.08
832.373	186.91
832.546	209.03
832.718	197.56
832.891	222.14
833.063	244.25
833.235	274.56
833.408	241.39
833.58	182.82
833.752	246.71
833.924	216.4
834.097	263.91
834.269	276.2
834.441	176.67
834.613	201.25
834.785	201.25
834.958	255.72
835.13	277.43
835.302	190.6
835.474	224.59
835.646	192.24
835.818	202.48
835.99	195.51
836.162	242.21
836.334	261.05
836.506	249.17
836.678	234.01
836.85	220.09
837.022	161.11
837.194	217.22
837.366	180.77
837.538	165.2
837.71	201.66
837.882	132.44
838.053	227.46
838.225	150.05
838.397	245.89
838.569	143.49
838.74	102.53
838.912	264.32
839.084	133.25
839.256	193.87
839.427	143.9
839.599	169.71
839.771	198.38
839.942	104.58
840.114	124.65
840.285	111.55
840.457	219.27
840.628	234.83
840.8	174.62
840.971	247.53
841.143	127.52
841.314	134.89
841.486	252.04
841.657	179.13
841.829	148.82
842	177.49
842.171	163.97
842.343	211.49
842.514	85.74
842.686	121.38
842.857	177.08
843.028	154.96
843.199	84.92
843.371	132.03
843.542	96.8
843.713	188.14
843.884	113.59
844.055	104.58
844.227	139.81
844.398	147.59
844.569	151.28
844.74	212.31
844.911	66.9
845.082	168.89
845.253	112.37
845.424	144.72
845.595	135.71
845.766	107.04
845.937	124.65
846.108	85.33
846.279	135.71
846.45	142.27
846.621	122.61
846.792	171.35
846.962	142.68
847.133	114.41
847.304	125.88
847.475	148.82
847.646	159.06
847.816	145.13
847.987	114.41
848.158	111.55
848.329	107.04
848.499	217.22
848.67	204.93
848.841	132.84
849.011	129.98
849.182	111.14
849.352	111.55
849.523	82.06
849.693	102.53
849.864	155.78
850.034	89.02
850.205	136.12
850.375	34.54
850.546	60.76
850.716	89.43
850.887	88.2
851.057	67.31
851.228	35.36
851.398	-5.6
851.568	117.28
851.739	62.8
851.909	98.85
852.079	59.12
852.249	91.07
852.42	141.45
852.59	70.59
852.76	144.31
852.93	122.2
853.1	112.77
853.271	160.7
853.441	106.63
853.611	75.91
853.781	44.37
853.951	148.82
854.121	70.18
854.291	85.33
854.461	40.69
854.631	159.06
854.801	23.48
854.971	108.68
855.141	113.18
855.311	78.37
855.481	143.49
855.651	-16.25
855.821	49.7
855.991	106.63
856.16	45.6
856.33	102.13
856.5	179.95
856.67	136.12
856.84	55.84
857.009	55.43
857.179	104.58
857.349	81.65
857.518	63.62
857.688	111.55
857.858	66.08
858.027	99.67
858.197	79.19
858.367	73.86
858.536	100.08
858.706	55.43
858.875	21.03
859.045	76.73
859.214	77.96
859.384	92.3
859.553	13.65
859.723	43.14
859.892	51.75
860.061	82.46
860.231	42.73
860.4	85.33
860.569	26.35
860.739	40.69
860.908	46.01
861.077	12.42
861.247	112.77
861.416	59.12
861.585	-1.09
861.754	71
861.924	80.42
862.093	59.12
862.262	35.36
862.431	50.52
862.6	43.55
862.769	55.02
862.938	11.61
863.107	132.44
863.276	89.84
863.445	55.84
863.614	38.64
863.783	66.9
863.952	14.06
864.121	119.33
864.29	4.23
864.459	12.42
864.628	89.84
864.797	105.4
864.966	38.23
865.135	21.85
865.303	26.35
865.472	39.05
865.641	98.03
865.81	35.36
865.979	-16.25
866.147	62.39
866.316	20.21
866.485	57.89
866.653	81.24
866.822	17.34
866.991	13.24
867.159	5.46
867.328	0.96
867.496	57.89
867.665	34.13
867.833	55.02
868.002	15.7
868.17	165.2
868.339	3.82
868.507	1.77
868.676	90.25
868.844	82.46
869.013	-34.27
869.181	28.4
869.349	46.42
869.518	20.21
869.686	59.12
869.854	77.96
870.023	78.78
870.191	51.75
870.359	-7.65
870.527	41.92
870.695	23.07
870.864	82.06
871.032	16.11
871.2	13.24
871.368	52.97
871.536	102.13
871.704	-37.55
871.872	35.77
872.04	111.55
872.209	-15.84
872.377	46.01
872.545	52.97
872.712	-18.3
872.88	54.2
873.048	25.94
873.216	73.86
873.384	30.45
873.552	73.86
873.72	-17.07
873.888	48.06
874.056	25.53
874.223	50.52
874.391	19.39
874.559	66.49
874.727	68.13
874.894	48.06
875.062	71.41
875.23	39.87
875.398	57.07
875.565	42.32
875.733	-14.61
875.9	18.16
876.068	86.97
876.236	56.66
876.403	66.08
876.571	6.28
876.738	53.79
876.906	58.3
877.073	-8.46
877.241	39.46
877.408	38.23
877.576	72.23
877.743	32.49
877.91	43.55
878.078	41.51
878.245	32.49
878.412	-4.78
878.58	61.17
878.747	41.51
878.914	-23.62
879.082	10.38
879.249	-12.15
879.416	63.21
879.583	-5.6
879.75	54.2
879.918	6.28
880.085	-8.06
880.252	85.33
880.419	32.9
880.586	0.96
880.753	72.63
880.92	57.48
881.087	51.75
881.254	63.21
881.421	8.33
881.588	-25.26
881.755	14.88
881.922	-8.46
882.089	48.88
882.256	-6.01
882.423	95.57
882.589	22.66
882.756	-19.11
882.923	17.34
883.09	-46.15
883.257	23.07
883.423	12.01
883.59	48.47
883.757	11.2
883.924	48.06
884.09	50.11
884.257	37.41
884.424	51.75
884.59	80.01
884.757	56.25
884.923	34.54
885.09	-28.13
885.257	9.56
885.423	25.12
885.59	0.14
885.756	-23.62
885.923	18.98
886.089	34.95
886.255	106.22
886.422	16.11
886.588	-0.68
886.755	28.4
886.921	67.31
887.087	-13.79
887.254	59.12
887.42	33.72
887.586	-27.31
887.752	-4.37
887.919	36.59
888.085	30.45
888.251	18.16
888.417	19.39
888.583	45.6
888.75	5.46
888.916	26.76
889.082	-8.87
889.248	80.42
889.414	102.53
889.58	7.51
889.746	7.51
889.912	7.51
